frequency,raw
20.00,-234.70
20.20,-233.75
20.40,-232.79
20.61,-231.88
20.81,-230.90
21.02,-229.97
21.23,-229.00
21.44,-228.04
21.66,-227.15
21.87,-226.15
22.09,-225.22
22.31,-224.25
22.54,-223.37
22.76,-222.38
22.99,-221.46
23.22,-220.51
23.45,-219.55
23.69,-218.64
23.92,-217.63
24.16,-216.71
24.40,-215.74
24.65,-214.84
24.89,-213.85
25.14,-212.90
25.39,-211.96
25.65,-211.05
25.91,-210.13
26.16,-209.12
26.43,-208.24
26.69,-207.27
26.96,-206.34
27.23,-205.40
27.50,-204.43
27.77,-203.45
28.05,-202.52
28.33,-201.57
28.62,-200.67
28.90,-199.68
29.19,-198.74
29.48,-197.79
29.78,-196.86
30.08,-195.94
30.38,-194.99
30.68,-194.03
30.99,-193.10
31.30,-192.16
31.61,-191.19
31.93,-190.26
32.24,-189.26
32.57,-188.35
32.89,-187.39
33.22,-186.44
33.55,-185.49
33.89,-184.57
34.23,-183.62
34.57,-182.66
34.92,-181.75
35.27,-180.81
35.62,-179.84
35.97,-178.87
36.33,-177.93
36.70,-177.00
37.06,-176.04
37.43,-175.07
37.81,-174.16
38.19,-173.22
38.57,-172.27
38.95,-171.29
39.34,-170.36
39.74,-169.44
40.14,-168.51
40.54,-167.54
40.94,-166.58
41.35,-165.63
41.76,-164.69
42.18,-163.74
42.60,-162.79
43.03,-161.87
43.46,-160.90
43.90,-160.00
44.33,-159.01
44.78,-158.08
45.23,-157.16
45.68,-156.19
46.13,-155.23
46.60,-154.30
47.06,-153.34
47.53,-152.39
48.01,-151.46
48.49,-150.52
48.97,-149.55
49.46,-148.61
49.96,-147.68
50.46,-146.73
50.96,-145.77
51.47,-144.82
51.99,-143.90
52.51,-142.95
53.03,-142.01
53.56,-141.06
54.10,-140.11
54.64,-139.17
55.18,-138.20
55.74,-137.28
56.29,-136.31
56.86,-135.38
57.42,-134.42
58.00,-133.49
58.58,-132.55
59.16,-131.58
59.76,-130.66
60.35,-129.69
60.96,-128.76
61.57,-127.82
62.18,-126.85
62.80,-125.91
63.43,-124.96
64.07,-124.03
64.71,-123.09
65.35,-122.12
66.01,-121.20
66.67,-120.25
67.33,-119.28
68.01,-118.36
68.69,-117.41
69.37,-116.45
70.07,-115.52
70.77,-114.58
71.48,-113.63
72.19,-112.66
72.91,-111.72
73.64,-110.77
74.38,-109.85
75.12,-108.88
75.87,-107.93
76.63,-106.99
77.40,-106.06
78.17,-105.10
78.95,-104.15
79.74,-103.21
80.54,-102.26
81.35,-101.33
82.16,-100.39
82.98,-99.42
83.81,-98.48
84.65,-97.55
85.50,-96.60
86.35,-95.64
87.22,-94.71
88.09,-93.77
88.97,-92.82
89.86,-91.88
90.76,-90.93
91.66,-89.96
92.58,-89.04
93.51,-88.09
94.44,-87.13
95.39,-86.20
96.34,-85.25
97.30,-84.29
98.28,-83.36
99.26,-82.42
100.25,-81.45
101.25,-80.51
102.27,-79.58
103.29,-78.63
104.32,-77.67
105.37,-76.74
106.42,-75.80
107.48,-74.83
108.56,-73.90
109.64,-72.94
110.74,-72.01
111.85,-71.07
112.97,-70.12
114.10,-69.17
115.24,-68.23
116.39,-67.28
117.55,-66.32
118.73,-65.39
119.92,-64.45
121.12,-63.50
122.33,-62.55
123.55,-61.61
124.79,-60.66
126.03,-59.70
127.29,-58.75
128.57,-57.82
129.85,-56.86
131.15,-55.93
132.46,-54.97
133.79,-54.04
135.12,-53.08
136.48,-52.15
137.84,-51.20
139.22,-50.26
140.61,-49.31
142.02,-48.37
143.44,-47.42
144.87,-46.47
146.32,-45.53
147.78,-44.56
149.26,-43.64
150.75,-42.67
152.26,-41.75
153.78,-40.78
155.32,-39.83
156.88,-38.91
158.44,-37.94
160.03,-37.02
161.63,-36.07
163.24,-35.10
164.88,-34.18
166.53,-33.23
168.19,-32.29
169.87,-31.32
171.57,-30.40
173.29,-29.47
175.02,-28.64
176.77,-27.83
178.54,-27.23
180.32,-26.64
182.13,-26.09
183.95,-25.52
185.79,-24.76
187.65,-23.94
189.52,-22.69
191.42,-21.66
193.33,-21.10
195.27,-20.53
197.22,-20.43
199.19,-20.42
201.18,-20.40
203.19,-20.39
205.23,-20.30
207.28,-19.85
209.35,-19.41
211.44,-18.47
213.56,-17.37
215.69,-16.44
217.85,-15.72
220.03,-14.94
222.23,-14.09
224.45,-14.19
226.70,-14.68
228.96,-15.17
231.25,-15.66
233.57,-15.09
235.90,-14.30
238.26,-13.52
240.64,-13.21
243.05,-14.34
245.48,-14.86
247.93,-15.38
250.41,-15.98
252.92,-16.55
255.45,-17.03
258.00,-17.51
260.58,-17.93
263.19,-18.33
265.82,-18.74
268.48,-19.36
271.16,-18.42
273.87,-17.47
276.61,-15.56
279.38,-14.03
282.17,-13.45
284.99,-12.90
287.84,-12.46
290.72,-12.25
293.63,-12.04
296.57,-11.83
299.53,-11.62
302.53,-11.41
305.55,-11.09
308.61,-11.66
311.69,-12.23
314.81,-13.19
317.96,-13.77
321.14,-14.20
324.35,-14.65
327.59,-15.15
330.87,-14.74
334.18,-14.11
337.52,-13.49
340.90,-12.95
344.30,-12.40
347.75,-11.96
351.23,-11.54
354.74,-10.82
358.28,-10.00
361.87,-8.97
365.49,-8.73
369.14,-8.48
372.83,-8.23
376.56,-8.40
380.33,-8.68
384.13,-8.96
387.97,-9.23
391.85,-9.50
395.77,-9.63
399.73,-9.76
403.72,-9.88
407.76,-9.55
411.84,-9.09
415.96,-8.63
420.12,-8.35
424.32,-8.13
428.56,-7.91
432.85,-7.69
437.18,-7.22
441.55,-6.74
445.96,-6.35
450.42,-6.01
454.93,-5.91
459.48,-6.80
464.07,-7.69
468.71,-8.58
473.40,-7.26
478.13,-7.02
482.91,-6.78
487.74,-6.46
492.62,-5.67
497.55,-4.28
502.52,-3.69
507.55,-4.23
512.62,-4.40
517.75,-4.58
522.93,-4.75
528.16,-4.92
533.44,-4.61
538.77,-4.19
544.16,-4.29
549.60,-4.64
555.10,-4.99
560.65,-5.19
566.25,-4.58
571.92,-3.98
577.64,-3.27
583.41,-2.30
589.25,-1.80
595.14,-1.34
601.09,-0.95
607.10,-0.82
613.17,-0.68
619.30,-0.55
625.50,-0.41
631.75,-0.27
638.07,-0.14
644.45,0.00
650.89,0.14
657.40,0.24
663.98,0.28
670.62,0.31
677.32,0.34
684.10,0.38
690.94,0.41
697.85,0.16
704.83,-0.19
711.87,-0.53
718.99,-0.88
726.18,-1.66
733.44,-0.85
740.78,-0.04
748.19,0.77
755.67,0.17
763.23,-1.64
770.86,-5.96
778.57,-9.06
786.35,-9.82
794.22,-10.46
802.16,-10.98
810.18,-11.55
818.28,-12.17
826.46,-12.74
834.73,-13.15
843.08,-13.46
851.51,-12.81
860.02,-12.16
868.62,-11.26
877.31,-9.74
886.08,-7.80
894.94,-6.35
903.89,-4.65
912.93,-4.17
922.06,-3.70
931.28,-3.28
940.59,-2.95
950.00,-2.61
959.50,-1.84
969.09,-1.11
978.78,-0.47
988.57,-0.04
998.46,-0.01
1008.44,0.03
1018.53,0.06
1028.71,0.10
1039.00,-0.02
1049.39,-0.16
1059.88,-0.30
1070.48,-0.44
1081.19,-0.44
1092.00,-0.31
1102.92,-0.18
1113.95,-0.05
1125.09,0.08
1136.34,0.07
1147.70,0.07
1159.18,0.06
1170.77,0.05
1182.48,0.18
1194.30,0.64
1206.25,1.10
1218.31,1.42
1230.49,1.74
1242.80,2.06
1255.22,2.27
1267.78,2.23
1280.45,2.20
1293.26,2.16
1306.19,2.13
1319.25,2.09
1332.45,2.01
1345.77,1.92
1359.23,1.83
1372.82,1.74
1386.55,1.66
1400.41,1.78
1414.42,2.04
1428.56,2.30
1442.85,2.56
1457.28,2.68
1471.85,2.60
1486.57,2.52
1501.43,2.44
1516.45,2.36
1531.61,2.27
1546.93,2.03
1562.40,1.78
1578.02,1.54
1593.80,1.30
1609.74,1.06
1625.84,0.78
1642.10,0.49
1658.52,0.20
1675.10,-0.28
1691.85,-1.42
1708.77,-2.76
1725.86,-4.08
1743.12,-4.77
1760.55,-5.39
1778.15,-5.91
1795.94,-5.59
1813.90,-5.28
1832.03,-4.97
1850.36,-4.65
1868.86,-4.38
1887.55,-4.17
1906.42,-3.97
1925.49,-3.76
1944.74,-3.59
1964.19,-3.82
1983.83,-4.05
2003.67,-4.28
2023.71,-4.51
2043.94,-4.74
2064.38,-5.01
2085.03,-5.29
2105.88,-5.58
2126.94,-5.91
2148.20,-6.42
2169.69,-6.94
2191.38,-7.22
2213.30,-7.43
2235.43,-7.69
2257.78,-8.04
2280.36,-8.39
2303.17,-9.83
2326.20,-10.20
2349.46,-10.57
2372.95,-11.19
2396.68,-12.04
2420.65,-13.59
2444.86,-15.14
2469.31,-12.87
2494.00,-12.54
2518.94,-12.20
2544.13,-11.86
2569.57,-11.53
2595.27,-11.20
2621.22,-10.87
2647.43,-10.54
2673.90,-10.21
2700.64,-9.46
2727.65,-8.65
2754.93,-7.94
2782.48,-7.23
2810.30,-6.51
2838.40,-6.08
2866.79,-5.69
2895.46,-5.30
2924.41,-5.09
2953.65,-4.98
2983.19,-5.20
3013.02,-5.43
3043.15,-5.65
3073.58,-5.83
3104.32,-5.31
3135.36,-4.80
3166.72,-4.10
3198.38,-3.23
3230.37,-2.48
3262.67,-1.77
3295.30,-1.08
3328.25,-0.76
3361.53,-0.52
3395.15,-0.27
3429.10,-0.03
3463.39,0.61
3498.03,0.07
3533.01,-0.47
3568.34,-2.76
3604.02,-5.26
3640.06,-8.10
3676.46,-10.43
3713.22,-9.52
3750.36,-8.91
3787.86,-8.30
3825.74,-7.06
3864.00,-4.83
3902.64,-3.42
3941.66,-2.49
3981.08,-2.14
4020.89,-1.78
4061.10,-1.49
4101.71,-1.65
4142.73,-1.81
4184.15,-1.96
4226.00,-2.12
4268.26,-2.28
4310.94,-2.17
4354.05,-1.99
4397.59,-1.81
4441.56,-1.64
4485.98,-1.46
4530.84,-1.22
4576.15,-0.90
4621.91,-0.57
4668.13,-0.01
4714.81,0.92
4761.96,1.84
4809.58,2.59
4857.67,3.33
4906.25,2.77
4955.31,2.09
5004.87,1.42
5054.91,-0.13
5105.46,-2.16
5156.52,-3.80
5208.08,-5.05
5260.16,-6.09
5312.77,-6.74
5365.89,-7.31
5419.55,-7.48
5473.75,-7.66
5528.49,-7.84
5583.77,-7.91
5639.61,-7.58
5696.00,-7.24
5752.96,-6.90
5810.49,-6.56
5868.60,-6.46
5927.28,-6.45
5986.56,-6.44
6046.42,-6.44
6106.89,-6.55
6167.96,-7.05
6229.64,-7.55
6291.93,-8.25
6354.85,-9.19
6418.40,-10.31
6482.58,-10.72
6547.41,-11.14
6612.88,-11.37
6679.01,-11.38
6745.80,-11.39
6813.26,-11.40
6881.39,-11.41
6950.21,-11.51
7019.71,-11.69
7089.91,-11.87
7160.81,-12.05
7232.41,-12.09
7304.74,-11.66
7377.79,-11.23
7451.56,-10.80
7526.08,-10.30
7601.34,-9.70
7677.35,-10.17
7754.13,-11.30
7831.67,-13.13
7909.98,-14.06
7989.08,-15.04
8068.98,-15.10
8149.67,-14.85
8231.16,-14.60
8313.47,-14.35
8396.61,-14.09
8480.57,-13.90
8565.38,-13.76
8651.03,-13.61
8737.54,-13.47
8824.92,-13.32
8913.17,-13.18
9002.30,-13.24
9092.32,-13.30
9183.25,-13.36
9275.08,-13.42
9367.83,-13.70
9461.51,-14.31
9556.12,-14.93
9651.68,-16.41
9748.20,-18.47
9845.68,-19.72
9944.14,-20.51
10043.58,-20.75
10144.02,-20.99
10245.46,-21.22
10347.91,-21.46
10451.39,-21.12
10555.91,-20.75
10661.46,-20.39
10768.08,-20.02
10875.76,-19.71
10984.52,-19.53
11094.36,-19.35
11205.31,-19.51
11317.36,-19.89
11430.53,-20.27
11544.84,-20.63
11660.29,-20.89
11776.89,-21.16
11894.66,-21.49
12013.60,-22.04
12133.74,-22.60
12255.08,-23.15
12377.63,-23.63
12501.41,-22.74
12626.42,-22.54
12752.68,-22.34
12880.21,-22.13
13009.01,-21.69
13139.10,-21.02
13270.49,-20.38
13403.20,-19.76
13537.23,-19.13
13672.60,-16.79
13809.33,-17.95
13947.42,-19.27
14086.90,-20.95
14227.77,-22.62
14370.04,-21.80
14513.74,-21.43
14658.88,-21.06
14805.47,-20.69
14953.52,-20.32
15103.06,-20.81
15254.09,-22.20
15406.63,-26.76
15560.70,-28.07
15716.30,-28.74
15873.47,-29.08
16032.20,-29.21
16192.52,-29.34
16354.45,-29.47
16517.99,-29.11
16683.17,-28.47
16850.01,-28.21
17018.51,-28.04
17188.69,-27.86
17360.58,-27.72
17534.18,-27.73
17709.53,-27.74
17886.62,-27.74
18065.49,-27.75
18246.14,-27.18
18428.60,-26.58
18612.89,-25.98
18799.02,-27.16
18987.01,-28.26
19176.88,-33.58
19368.65,-41.39
19562.33,-49.20
19757.96,-57.00
19955.54,-64.81
