frequency,raw
20.00,8.21
20.20,8.23
20.40,8.25
20.61,8.27
20.81,8.30
21.02,8.32
21.23,8.34
21.44,8.36
21.66,8.39
21.87,8.41
22.09,8.43
22.31,8.45
22.54,8.48
22.76,8.50
22.99,8.52
23.22,8.54
23.45,8.56
23.69,8.57
23.92,8.59
24.16,8.61
24.40,8.63
24.65,8.65
24.89,8.66
25.14,8.68
25.39,8.70
25.65,8.71
25.91,8.73
26.16,8.75
26.43,8.76
26.69,8.78
26.96,8.79
27.23,8.81
27.50,8.83
27.77,8.84
28.05,8.85
28.33,8.87
28.62,8.88
28.90,8.89
29.19,8.91
29.48,8.92
29.78,8.93
30.08,8.95
30.38,8.96
30.68,8.97
30.99,8.98
31.30,8.99
31.61,9.01
31.93,9.02
32.24,9.03
32.57,9.05
32.89,9.06
33.22,9.08
33.55,9.09
33.89,9.09
34.23,9.10
34.57,9.10
34.92,9.11
35.27,9.12
35.62,9.12
35.97,9.12
36.33,9.12
36.70,9.12
37.06,9.12
37.43,9.12
37.81,9.12
38.19,9.12
38.57,9.12
38.95,9.12
39.34,9.12
39.74,9.12
40.14,9.12
40.54,9.12
40.94,9.12
41.35,9.12
41.76,9.12
42.18,9.12
42.60,9.12
43.03,9.12
43.46,9.12
43.90,9.11
44.33,9.10
44.78,9.09
45.23,9.08
45.68,9.07
46.13,9.05
46.60,9.04
47.06,9.03
47.53,9.02
48.01,9.01
48.49,8.99
48.97,8.98
49.46,8.97
49.96,8.96
50.46,8.95
50.96,8.95
51.47,8.94
51.99,8.94
52.51,8.93
53.03,8.92
53.56,8.91
54.10,8.89
54.64,8.88
55.18,8.86
55.74,8.84
56.29,8.83
56.86,8.81
57.42,8.80
58.00,8.78
58.58,8.76
59.16,8.75
59.76,8.73
60.35,8.72
60.96,8.71
61.57,8.70
62.18,8.69
62.80,8.68
63.43,8.67
64.07,8.65
64.71,8.64
65.35,8.63
66.01,8.61
66.67,8.59
67.33,8.57
68.01,8.55
68.69,8.54
69.37,8.52
70.07,8.50
70.77,8.48
71.48,8.46
72.19,8.45
72.91,8.43
73.64,8.41
74.38,8.39
75.12,8.36
75.87,8.33
76.63,8.31
77.40,8.28
78.17,8.26
78.95,8.23
79.74,8.21
80.54,8.18
81.35,8.15
82.16,8.13
82.98,8.10
83.81,8.08
84.65,8.05
85.50,8.02
86.35,7.99
87.22,7.96
88.09,7.93
88.97,7.90
89.86,7.87
90.76,7.84
91.66,7.81
92.58,7.78
93.51,7.75
94.44,7.72
95.39,7.69
96.34,7.66
97.30,7.63
98.28,7.60
99.26,7.57
100.25,7.54
101.25,7.51
102.27,7.48
103.29,7.45
104.32,7.41
105.37,7.38
106.42,7.35
107.48,7.31
108.56,7.28
109.64,7.25
110.74,7.21
111.85,7.18
112.97,7.14
114.10,7.11
115.24,7.07
116.39,7.04
117.55,7.00
118.73,6.97
119.92,6.93
121.12,6.90
122.33,6.86
123.55,6.82
124.79,6.79
126.03,6.75
127.29,6.71
128.57,6.67
129.85,6.64
131.15,6.60
132.46,6.56
133.79,6.52
135.12,6.48
136.48,6.44
137.84,6.41
139.22,6.37
140.61,6.33
142.02,6.29
143.44,6.25
144.87,6.21
146.32,6.16
147.78,6.12
149.26,6.08
150.75,6.04
152.26,5.99
153.78,5.95
155.32,5.90
156.88,5.86
158.44,5.81
160.03,5.77
161.63,5.72
163.24,5.68
164.88,5.63
166.53,5.58
168.19,5.54
169.87,5.49
171.57,5.44
173.29,5.40
175.02,5.35
176.77,5.30
178.54,5.25
180.32,5.20
182.13,5.15
183.95,5.10
185.79,5.05
187.65,5.00
189.52,4.95
191.42,4.90
193.33,4.85
195.27,4.80
197.22,4.75
199.19,4.70
201.18,4.66
203.19,4.61
205.23,4.56
207.28,4.52
209.35,4.47
211.44,4.42
213.56,4.38
215.69,4.33
217.85,4.28
220.03,4.24
222.23,4.19
224.45,4.14
226.70,4.10
228.96,4.04
231.25,3.99
233.57,3.94
235.90,3.89
238.26,3.84
240.64,3.79
243.05,3.74
245.48,3.68
247.93,3.63
250.41,3.58
252.92,3.53
255.45,3.47
258.00,3.42
260.58,3.37
263.19,3.31
265.82,3.26
268.48,3.20
271.16,3.15
273.87,3.09
276.61,3.04
279.38,2.99
282.17,2.94
284.99,2.89
287.84,2.84
290.72,2.78
293.63,2.73
296.57,2.68
299.53,2.63
302.53,2.57
305.55,2.52
308.61,2.46
311.69,2.41
314.81,2.35
317.96,2.30
321.14,2.25
324.35,2.20
327.59,2.15
330.87,2.10
334.18,2.05
337.52,2.00
340.90,1.94
344.30,1.89
347.75,1.84
351.23,1.79
354.74,1.74
358.28,1.69
361.87,1.64
365.49,1.59
369.14,1.53
372.83,1.48
376.56,1.43
380.33,1.38
384.13,1.33
387.97,1.28
391.85,1.24
395.77,1.19
399.73,1.14
403.72,1.09
407.76,1.05
411.84,1.00
415.96,0.96
420.12,0.91
424.32,0.87
428.56,0.82
432.85,0.78
437.18,0.73
441.55,0.69
445.96,0.64
450.42,0.60
454.93,0.55
459.48,0.51
464.07,0.47
468.71,0.42
473.40,0.38
478.13,0.33
482.91,0.29
487.74,0.24
492.62,0.20
497.55,0.15
502.52,0.11
507.55,0.07
512.62,0.02
517.75,-0.02
522.93,-0.06
528.16,-0.10
533.44,-0.15
538.77,-0.18
544.16,-0.22
549.60,-0.26
555.10,-0.30
560.65,-0.33
566.25,-0.37
571.92,-0.41
577.64,-0.44
583.41,-0.47
589.25,-0.50
595.14,-0.54
601.09,-0.57
607.10,-0.60
613.17,-0.63
619.30,-0.67
625.50,-0.70
631.75,-0.74
638.07,-0.77
644.45,-0.81
650.89,-0.84
657.40,-0.87
663.98,-0.90
670.62,-0.93
677.32,-0.96
684.10,-0.99
690.94,-1.02
697.85,-1.05
704.83,-1.08
711.87,-1.10
718.99,-1.13
726.18,-1.15
733.44,-1.18
740.78,-1.21
748.19,-1.22
755.67,-1.23
763.23,-1.24
770.86,-1.25
778.57,-1.26
786.35,-1.27
794.22,-1.29
802.16,-1.29
810.18,-1.29
818.28,-1.29
826.46,-1.30
834.73,-1.30
843.08,-1.30
851.51,-1.30
860.02,-1.27
868.62,-1.25
877.31,-1.22
886.08,-1.20
894.94,-1.17
903.89,-1.14
912.93,-1.08
922.06,-0.99
931.28,-0.90
940.59,-0.82
950.00,-0.73
959.50,-0.64
969.09,-0.55
978.78,-0.38
988.57,-0.20
998.46,-0.03
1008.44,0.15
1018.53,0.32
1028.71,0.53
1039.00,0.81
1049.39,1.10
1059.88,1.38
1070.48,1.67
1081.19,1.99
1092.00,2.32
1102.92,2.65
1113.95,2.97
1125.09,3.26
1136.34,3.54
1147.70,3.82
1159.18,4.10
1170.77,4.36
1182.48,4.59
1194.30,4.83
1206.25,5.07
1218.31,5.30
1230.49,5.57
1242.80,5.85
1255.22,6.13
1267.78,6.41
1280.45,6.72
1293.26,7.05
1306.19,7.38
1319.25,7.72
1332.45,8.01
1345.77,8.31
1359.23,8.60
1372.82,8.89
1386.55,9.14
1400.41,9.38
1414.42,9.63
1428.56,9.88
1442.85,10.11
1457.28,10.27
1471.85,10.43
1486.57,10.59
1501.43,10.75
1516.45,10.90
1531.61,11.05
1546.93,11.08
1562.40,11.12
1578.02,11.15
1593.80,11.19
1609.74,11.22
1625.84,11.26
1642.10,11.24
1658.52,11.17
1675.10,11.10
1691.85,11.03
1708.77,10.96
1725.86,10.89
1743.12,10.82
1760.55,10.71
1778.15,10.59
1795.94,10.47
1813.90,10.35
1832.03,10.24
1850.36,10.12
1868.86,10.00
1887.55,9.87
1906.42,9.75
1925.49,9.62
1944.74,9.50
1964.19,9.37
1983.83,9.24
2003.67,9.12
2023.71,9.00
2043.94,8.88
2064.38,8.77
2085.03,8.65
2105.88,8.53
2126.94,8.41
2148.20,8.31
2169.69,8.21
2191.38,8.10
2213.30,8.00
2235.43,7.90
2257.78,7.80
2280.36,7.71
2303.17,7.64
2326.20,7.56
2349.46,7.49
2372.95,7.41
2396.68,7.34
2420.65,7.27
2444.86,7.22
2469.31,7.17
2494.00,7.13
2518.94,7.09
2544.13,7.05
2569.57,7.01
2595.27,6.97
2621.22,6.99
2647.43,7.00
2673.90,7.01
2700.64,7.02
2727.65,7.03
2754.93,7.04
2782.48,7.09
2810.30,7.20
2838.40,7.31
2866.79,7.42
2895.46,7.53
2924.41,7.63
2953.65,7.74
2983.19,7.96
3013.02,8.21
3043.15,8.46
3073.58,8.71
3104.32,8.96
3135.36,9.26
3166.72,9.59
3198.38,9.93
3230.37,10.26
3262.67,10.50
3295.30,10.71
3328.25,10.92
3361.53,11.13
3395.15,11.35
3429.10,11.50
3463.39,11.53
3498.03,11.56
3533.01,11.59
3568.34,11.62
3604.02,11.65
3640.06,11.68
3676.46,11.60
3713.22,11.46
3750.36,11.32
3787.86,11.18
3825.74,11.04
3864.00,10.90
3902.64,10.68
3941.66,10.42
3981.08,10.16
4020.89,9.91
4061.10,9.65
4101.71,9.37
4142.73,9.08
4184.15,8.79
4226.00,8.51
4268.26,8.24
4310.94,8.00
4354.05,7.75
4397.59,7.50
4441.56,7.26
4485.98,7.04
4530.84,6.83
4576.15,6.62
4621.91,6.41
4668.13,6.20
4714.81,5.99
4761.96,5.82
4809.58,5.65
4857.67,5.49
4906.25,5.32
4955.31,5.15
5004.87,4.98
5054.91,4.86
5105.46,4.76
5156.52,4.66
5208.08,4.56
5260.16,4.45
5312.77,4.35
5365.89,4.27
5419.55,4.34
5473.75,4.40
5528.49,4.47
5583.77,4.54
5639.61,4.60
5696.00,4.92
5752.96,5.35
5810.49,5.78
5868.60,6.45
5927.28,7.67
5986.56,8.78
6046.42,9.61
6106.89,9.91
6167.96,10.21
6229.64,10.51
6291.93,10.81
6354.85,10.93
6418.40,10.99
6482.58,10.65
6547.41,10.30
6612.88,9.96
6679.01,9.60
6745.80,9.09
6813.26,8.58
6881.39,8.04
6950.21,7.48
7019.71,6.90
7089.91,6.31
7160.81,5.74
7232.41,5.19
7304.74,4.65
7377.79,4.17
7451.56,3.69
7526.08,3.22
7601.34,2.76
7677.35,2.30
7754.13,1.86
7831.67,1.42
7909.98,0.98
7989.08,0.58
8068.98,0.18
8149.67,-0.21
8231.16,-0.57
8313.47,-0.89
8396.61,-1.21
8480.57,-1.53
8565.38,-1.73
8651.03,-1.89
8737.54,-2.04
8824.92,-2.19
8913.17,-2.35
9002.30,-2.43
9092.32,-2.35
9183.25,-2.27
9275.08,-2.18
9367.83,-2.10
9461.51,-2.02
9556.12,-1.72
9651.68,-1.39
9748.20,-1.05
9845.68,-0.72
9944.14,-0.53
10043.58,-0.43
10144.02,-0.33
10245.46,-0.23
10347.91,-0.13
10451.39,-0.07
10555.91,-0.20
10661.46,-0.32
10768.08,-0.45
10875.76,-0.57
10984.52,-0.70
11094.36,-0.82
11205.31,-0.95
11317.36,-1.09
11430.53,-1.22
11544.84,-1.35
11660.29,-1.49
11776.89,-1.62
11894.66,-1.76
12013.60,-1.73
12133.74,-1.69
12255.08,-1.65
12377.63,-1.61
12501.41,-1.57
12626.42,-1.53
12752.68,-1.42
12880.21,-1.12
13009.01,-0.83
13139.10,-0.54
13270.49,-0.24
13403.20,0.13
13537.23,0.60
13672.60,1.07
13809.33,1.46
13947.42,1.78
14086.90,2.10
14227.77,1.82
14370.04,1.48
14513.74,1.13
14658.88,0.78
14805.47,0.38
14953.52,-0.20
15103.06,-0.79
15254.09,-1.41
15406.63,-2.03
15560.70,-2.48
15716.30,-2.87
15873.47,-3.25
16032.20,-3.62
16192.52,-3.85
16354.45,-4.09
16517.99,-4.33
16683.17,-4.56
16850.01,-4.79
17018.51,-4.97
17188.69,-5.16
17360.58,-5.34
17534.18,-5.53
17709.53,-5.71
17886.62,-5.96
18065.49,-6.25
18246.14,-6.54
18428.60,-6.83
18612.89,-7.31
18799.02,-8.16
18987.01,-8.67
19176.88,-9.09
19368.65,-9.50
19562.33,-9.99
19757.96,-10.48
19955.54,-11.93
