frequency,raw,error,smoothed,error_smoothed,equalization,fixed_band_eq,equalized_raw,equalized_smoothed,target
20.00,-10.53,-9.55,-10.53,-9.55,6.00,2.66,-4.53,-4.53,-0.98
20.20,-10.44,-9.49,-10.44,-9.50,6.00,2.74,-4.44,-4.44,-0.95
20.40,-10.36,-9.44,-10.36,-9.44,6.00,2.81,-4.36,-4.36,-0.92
20.61,-10.27,-9.37,-10.27,-9.38,6.00,2.90,-4.27,-4.27,-0.90
20.81,-10.19,-9.32,-10.19,-9.33,6.00,2.98,-4.19,-4.19,-0.87
21.02,-10.11,-9.27,-10.11,-9.26,6.00,3.07,-4.11,-4.11,-0.84
21.23,-10.03,-9.20,-10.03,-9.21,6.00,3.15,-4.03,-4.03,-0.83
21.44,-9.95,-9.13,-9.95,-9.14,6.00,3.25,-3.95,-3.95,-0.82
21.66,-9.88,-9.07,-9.88,-9.07,6.00,3.34,-3.88,-3.88,-0.81
21.87,-9.80,-8.99,-9.80,-9.00,6.00,3.44,-3.80,-3.80,-0.81
22.09,-9.73,-8.93,-9.73,-8.93,6.00,3.53,-3.73,-3.73,-0.80
22.31,-9.66,-8.86,-9.66,-8.86,6.00,3.64,-3.66,-3.66,-0.80
22.54,-9.59,-8.79,-9.59,-8.79,6.00,3.74,-3.59,-3.59,-0.80
22.76,-9.52,-8.72,-9.52,-8.72,6.00,3.85,-3.52,-3.52,-0.80
22.99,-9.46,-8.65,-9.46,-8.65,6.00,3.96,-3.46,-3.46,-0.81
23.22,-9.39,-8.58,-9.39,-8.59,6.00,4.07,-3.39,-3.39,-0.81
23.45,-9.33,-8.52,-9.33,-8.52,6.00,4.18,-3.33,-3.33,-0.81
23.69,-9.27,-8.46,-9.27,-8.46,6.00,4.30,-3.27,-3.27,-0.81
23.92,-9.21,-8.40,-9.21,-8.41,6.00,4.42,-3.21,-3.21,-0.81
24.16,-9.15,-8.35,-9.15,-8.35,6.00,4.54,-3.15,-3.15,-0.80
24.40,-9.10,-8.30,-9.10,-8.30,6.00,4.67,-3.10,-3.10,-0.80
24.65,-9.04,-8.23,-9.04,-8.24,6.00,4.79,-3.04,-3.04,-0.81
24.89,-8.99,-8.18,-8.99,-8.18,6.00,4.92,-2.99,-2.99,-0.81
25.14,-8.93,-8.12,-8.93,-8.13,6.00,5.05,-2.93,-2.93,-0.81
25.39,-8.88,-8.07,-8.88,-8.07,6.00,5.18,-2.88,-2.88,-0.81
25.65,-8.82,-8.01,-8.82,-8.01,6.00,5.31,-2.82,-2.82,-0.81
25.91,-8.76,-7.94,-8.76,-7.95,6.00,5.44,-2.76,-2.76,-0.82
26.16,-8.70,-7.88,-8.70,-7.89,6.00,5.57,-2.70,-2.70,-0.82
26.43,-8.65,-7.83,-8.65,-7.83,6.00,5.70,-2.65,-2.65,-0.82
26.69,-8.59,-7.77,-8.59,-7.77,6.00,5.82,-2.59,-2.59,-0.82
26.96,-8.53,-7.71,-8.53,-7.72,6.00,5.95,-2.53,-2.53,-0.82
27.23,-8.47,-7.65,-8.47,-7.66,6.00,6.07,-2.47,-2.47,-0.82
27.50,-8.42,-7.60,-8.42,-7.60,6.00,6.19,-2.42,-2.42,-0.82
27.77,-8.36,-7.53,-8.36,-7.53,6.00,6.30,-2.36,-2.36,-0.83
28.05,-8.29,-7.46,-8.29,-7.46,6.00,6.41,-2.29,-2.29,-0.83
28.33,-8.22,-7.38,-8.22,-7.39,6.00,6.51,-2.22,-2.22,-0.84
28.62,-8.15,-7.31,-8.15,-7.31,6.00,6.61,-2.15,-2.15,-0.84
28.90,-8.08,-7.24,-8.08,-7.24,6.00,6.69,-2.08,-2.08,-0.84
29.19,-8.00,-7.15,-8.00,-7.16,6.00,6.77,-2.00,-2.00,-0.85
29.48,-7.92,-7.08,-7.92,-7.08,6.00,6.83,-1.92,-1.92,-0.84
29.78,-7.83,-6.98,-7.83,-6.99,6.00,6.89,-1.83,-1.83,-0.85
30.08,-7.74,-6.89,-7.74,-6.90,6.00,6.93,-1.74,-1.74,-0.85
30.38,-7.65,-6.79,-7.65,-6.79,6.00,6.96,-1.65,-1.65,-0.86
30.68,-7.55,-6.69,-7.55,-6.69,6.01,6.98,-1.54,-1.54,-0.86
30.99,-7.44,-6.57,-7.44,-6.58,6.02,6.98,-1.42,-1.42,-0.87
31.30,-7.33,-6.46,-7.33,-6.47,6.02,6.97,-1.31,-1.31,-0.87
31.61,-7.22,-6.35,-7.22,-6.35,6.01,6.95,-1.20,-1.20,-0.87
31.93,-7.10,-6.23,-7.10,-6.22,5.99,6.91,-1.11,-1.11,-0.88
32.24,-6.98,-6.09,-6.98,-6.10,5.95,6.86,-1.02,-1.02,-0.89
32.57,-6.85,-5.96,-6.85,-5.97,5.90,6.79,-0.95,-0.96,-0.89
32.89,-6.73,-5.84,-6.73,-5.84,5.82,6.72,-0.91,-0.91,-0.89
33.22,-6.61,-5.71,-6.61,-5.72,5.73,6.63,-0.88,-0.88,-0.90
33.55,-6.49,-5.59,-6.49,-5.59,5.62,6.53,-0.87,-0.87,-0.90
33.89,-6.38,-5.47,-6.38,-5.47,5.50,6.42,-0.88,-0.88,-0.91
34.23,-6.26,-5.35,-6.26,-5.35,5.36,6.30,-0.90,-0.90,-0.91
34.57,-6.14,-5.22,-6.14,-5.22,5.22,6.17,-0.92,-0.92,-0.92
34.92,-6.01,-5.08,-6.01,-5.09,5.07,6.04,-0.94,-0.94,-0.93
35.27,-5.87,-4.95,-5.87,-4.94,4.93,5.89,-0.95,-0.94,-0.93
35.62,-5.72,-4.78,-5.72,-4.78,4.78,5.75,-0.94,-0.94,-0.94
35.97,-5.56,-4.61,-5.56,-4.62,4.63,5.59,-0.92,-0.93,-0.95
36.33,-5.42,-4.47,-5.42,-4.47,4.49,5.44,-0.93,-0.93,-0.95
36.70,-5.28,-4.32,-5.28,-4.33,4.34,5.28,-0.94,-0.94,-0.96
37.06,-5.16,-4.19,-5.16,-4.20,4.20,5.11,-0.96,-0.96,-0.97
37.43,-5.04,-4.07,-5.04,-4.07,4.06,4.95,-0.98,-0.98,-0.97
37.81,-4.92,-3.94,-4.92,-3.94,3.93,4.78,-0.99,-0.99,-0.98
38.19,-4.79,-3.80,-4.79,-3.81,3.80,4.62,-0.99,-0.99,-0.99
38.57,-4.66,-3.67,-4.66,-3.67,3.67,4.45,-0.99,-0.99,-0.99
38.95,-4.54,-3.54,-4.54,-3.54,3.54,4.28,-0.99,-0.99,-1.00
39.34,-4.42,-3.41,-4.42,-3.42,3.42,4.12,-1.00,-1.00,-1.01
39.74,-4.31,-3.29,-4.31,-3.29,3.30,3.95,-1.01,-1.00,-1.02
40.14,-4.20,-3.18,-4.20,-3.18,3.19,3.79,-1.01,-1.01,-1.02
40.54,-4.10,-3.07,-4.10,-3.08,3.08,3.62,-1.02,-1.02,-1.03
40.94,-4.01,-2.98,-4.00,-2.98,2.98,3.46,-1.03,-1.03,-1.03
41.35,-3.91,-2.87,-3.91,-2.88,2.88,3.30,-1.03,-1.03,-1.04
41.76,-3.82,-2.78,-3.82,-2.78,2.78,3.14,-1.04,-1.04,-1.04
42.18,-3.73,-2.69,-3.73,-2.69,2.69,2.98,-1.04,-1.04,-1.04
42.60,-3.64,-2.59,-3.64,-2.60,2.59,2.82,-1.05,-1.05,-1.05
43.03,-3.55,-2.50,-3.55,-2.50,2.49,2.66,-1.06,-1.06,-1.05
43.46,-3.46,-2.40,-3.46,-2.40,2.40,2.51,-1.06,-1.06,-1.06
43.90,-3.37,-2.29,-3.37,-2.30,2.30,2.36,-1.07,-1.07,-1.08
44.33,-3.28,-2.19,-3.28,-2.20,2.20,2.20,-1.08,-1.08,-1.09
44.78,-3.20,-2.10,-3.20,-2.10,2.10,2.06,-1.10,-1.09,-1.10
45.23,-3.11,-2.00,-3.11,-2.00,2.01,1.91,-1.10,-1.10,-1.11
45.68,-3.02,-1.90,-3.02,-1.91,1.91,1.76,-1.11,-1.11,-1.12
46.13,-2.94,-1.81,-2.94,-1.81,1.81,1.62,-1.12,-1.12,-1.13
46.60,-2.85,-1.72,-2.85,-1.72,1.72,1.47,-1.13,-1.13,-1.13
47.06,-2.76,-1.62,-2.76,-1.62,1.62,1.33,-1.14,-1.14,-1.14
47.53,-2.67,-1.52,-2.67,-1.53,1.53,1.19,-1.14,-1.14,-1.15
48.01,-2.58,-1.43,-2.58,-1.43,1.43,1.05,-1.15,-1.16,-1.15
48.49,-2.50,-1.33,-2.50,-1.33,1.33,0.92,-1.17,-1.17,-1.17
48.97,-2.42,-1.23,-2.41,-1.23,1.23,0.78,-1.19,-1.19,-1.19
49.46,-2.33,-1.12,-2.33,-1.12,1.13,0.65,-1.20,-1.20,-1.21
49.96,-2.24,-1.01,-2.24,-1.02,1.03,0.52,-1.21,-1.21,-1.23
50.46,-2.16,-0.93,-2.16,-0.93,0.93,0.39,-1.23,-1.23,-1.23
50.96,-2.07,-0.83,-2.07,-0.83,0.83,0.26,-1.24,-1.24,-1.24
51.47,-1.99,-0.73,-1.99,-0.74,0.74,0.14,-1.25,-1.25,-1.26
51.99,-1.91,-0.64,-1.91,-0.64,0.64,0.01,-1.27,-1.26,-1.27
52.51,-1.82,-0.55,-1.82,-0.55,0.55,-0.11,-1.27,-1.27,-1.27
53.03,-1.74,-0.46,-1.74,-0.46,0.46,-0.22,-1.28,-1.28,-1.28
53.56,-1.66,-0.37,-1.66,-0.37,0.37,-0.34,-1.29,-1.29,-1.29
54.10,-1.58,-0.28,-1.58,-0.28,0.28,-0.45,-1.30,-1.30,-1.30
54.64,-1.50,-0.19,-1.50,-0.20,0.20,-0.56,-1.30,-1.31,-1.31
55.18,-1.43,-0.11,-1.43,-0.11,0.11,-0.66,-1.32,-1.31,-1.32
55.74,-1.35,-0.02,-1.35,-0.03,0.03,-0.76,-1.32,-1.32,-1.33
56.29,-1.28,0.05,-1.28,0.05,-0.05,-0.86,-1.33,-1.33,-1.33
56.86,-1.21,0.13,-1.21,0.13,-0.12,-0.95,-1.33,-1.33,-1.34
57.42,-1.15,0.20,-1.15,0.20,-0.19,-1.04,-1.34,-1.34,-1.35
58.00,-1.08,0.27,-1.08,0.27,-0.26,-1.12,-1.34,-1.34,-1.35
58.58,-1.02,0.33,-1.02,0.33,-0.33,-1.20,-1.35,-1.35,-1.35
59.16,-0.95,0.40,-0.95,0.39,-0.40,-1.27,-1.35,-1.35,-1.35
59.76,-0.89,0.46,-0.89,0.46,-0.46,-1.34,-1.35,-1.35,-1.35
60.35,-0.83,0.53,-0.83,0.52,-0.53,-1.40,-1.36,-1.35,-1.36
60.96,-0.77,0.59,-0.77,0.59,-0.59,-1.45,-1.36,-1.36,-1.36
61.57,-0.72,0.66,-0.72,0.65,-0.65,-1.50,-1.37,-1.37,-1.38
62.18,-0.67,0.72,-0.67,0.72,-0.71,-1.54,-1.38,-1.38,-1.39
62.80,-0.61,0.78,-0.61,0.78,-0.78,-1.58,-1.38,-1.39,-1.39
63.43,-0.56,0.84,-0.56,0.84,-0.84,-1.61,-1.39,-1.39,-1.40
64.07,-0.50,0.90,-0.50,0.89,-0.89,-1.63,-1.39,-1.40,-1.40
64.71,-0.45,0.95,-0.45,0.95,-0.95,-1.65,-1.40,-1.40,-1.40
65.35,-0.39,1.01,-0.39,1.01,-1.01,-1.66,-1.40,-1.40,-1.40
66.01,-0.33,1.07,-0.33,1.06,-1.06,-1.67,-1.39,-1.40,-1.40
66.67,-0.28,1.12,-0.28,1.12,-1.12,-1.67,-1.40,-1.40,-1.40
67.33,-0.22,1.18,-0.22,1.17,-1.18,-1.67,-1.39,-1.40,-1.40
68.01,-0.17,1.23,-0.17,1.23,-1.23,-1.66,-1.40,-1.40,-1.40
68.69,-0.11,1.29,-0.11,1.29,-1.29,-1.64,-1.40,-1.40,-1.40
69.37,-0.05,1.35,-0.05,1.35,-1.35,-1.63,-1.39,-1.39,-1.40
70.07,0.01,1.41,0.01,1.40,-1.40,-1.61,-1.39,-1.39,-1.40
70.77,0.07,1.46,0.07,1.46,-1.46,-1.58,-1.39,-1.39,-1.39
71.48,0.12,1.51,0.12,1.51,-1.51,-1.56,-1.39,-1.39,-1.39
72.19,0.18,1.57,0.18,1.56,-1.56,-1.53,-1.38,-1.39,-1.39
72.91,0.23,1.62,0.23,1.62,-1.61,-1.49,-1.38,-1.38,-1.39
73.64,0.28,1.67,0.28,1.66,-1.66,-1.46,-1.38,-1.38,-1.39
74.38,0.33,1.71,0.33,1.71,-1.71,-1.43,-1.37,-1.38,-1.38
75.12,0.37,1.75,0.37,1.75,-1.75,-1.39,-1.38,-1.37,-1.38
75.87,0.42,1.79,0.42,1.78,-1.78,-1.35,-1.36,-1.37,-1.37
76.63,0.46,1.82,0.46,1.82,-1.82,-1.31,-1.36,-1.36,-1.36
77.40,0.50,1.85,0.50,1.85,-1.85,-1.27,-1.35,-1.35,-1.35
78.17,0.54,1.89,0.54,1.88,-1.88,-1.23,-1.34,-1.34,-1.35
78.95,0.58,1.91,0.58,1.91,-1.91,-1.19,-1.33,-1.33,-1.33
79.74,0.62,1.94,0.62,1.94,-1.93,-1.15,-1.31,-1.32,-1.32
80.54,0.65,1.96,0.65,1.96,-1.95,-1.11,-1.30,-1.30,-1.31
81.35,0.68,1.98,0.68,1.97,-1.97,-1.07,-1.29,-1.29,-1.30
82.16,0.70,1.99,0.70,1.98,-1.98,-1.03,-1.28,-1.28,-1.29
82.98,0.71,1.98,0.71,1.99,-1.99,-0.99,-1.28,-1.27,-1.27
83.81,0.72,1.99,0.72,1.99,-1.99,-0.95,-1.27,-1.27,-1.27
84.65,0.73,1.99,0.73,1.98,-1.99,-0.91,-1.25,-1.25,-1.26
85.50,0.74,1.98,0.74,1.98,-1.98,-0.87,-1.24,-1.24,-1.24
86.35,0.74,1.97,0.74,1.97,-1.97,-0.83,-1.23,-1.23,-1.23
87.22,0.74,1.96,0.74,1.95,-1.95,-0.79,-1.21,-1.21,-1.22
88.09,0.73,1.94,0.73,1.93,-1.93,-0.75,-1.20,-1.20,-1.21
88.97,0.72,1.91,0.72,1.91,-1.91,-0.72,-1.19,-1.19,-1.19
89.86,0.70,1.88,0.70,1.88,-1.88,-0.68,-1.18,-1.18,-1.18
90.76,0.68,1.86,0.68,1.85,-1.85,-0.65,-1.17,-1.17,-1.18
91.66,0.65,1.81,0.65,1.81,-1.81,-0.61,-1.16,-1.16,-1.16
92.58,0.62,1.78,0.62,1.77,-1.77,-0.58,-1.15,-1.15,-1.16
93.51,0.58,1.72,0.58,1.72,-1.72,-0.55,-1.14,-1.14,-1.14
94.44,0.54,1.67,0.54,1.67,-1.67,-0.52,-1.13,-1.13,-1.13
95.39,0.50,1.62,0.50,1.62,-1.62,-0.48,-1.12,-1.12,-1.12
96.34,0.45,1.57,0.45,1.56,-1.56,-0.45,-1.11,-1.11,-1.12
97.30,0.40,1.51,0.40,1.51,-1.50,-0.42,-1.10,-1.10,-1.11
98.28,0.35,1.45,0.35,1.45,-1.45,-0.39,-1.10,-1.10,-1.10
99.26,0.30,1.39,0.30,1.39,-1.39,-0.37,-1.09,-1.09,-1.09
100.25,0.26,1.34,0.26,1.33,-1.34,-0.34,-1.08,-1.08,-1.08
101.25,0.21,1.28,0.21,1.28,-1.28,-0.31,-1.07,-1.07,-1.07
102.27,0.17,1.23,0.17,1.23,-1.23,-0.28,-1.06,-1.06,-1.06
103.29,0.13,1.19,0.13,1.18,-1.18,-0.26,-1.05,-1.05,-1.06
104.32,0.10,1.14,0.10,1.14,-1.13,-0.23,-1.03,-1.04,-1.04
105.37,0.06,1.09,0.06,1.09,-1.09,-0.21,-1.03,-1.03,-1.03
106.42,0.03,1.05,0.03,1.05,-1.05,-0.19,-1.02,-1.02,-1.02
107.48,0.00,1.01,-0.00,1.01,-1.01,-0.16,-1.01,-1.01,-1.01
108.56,-0.03,0.98,-0.03,0.98,-0.98,-0.14,-1.01,-1.00,-1.01
109.64,-0.05,0.95,-0.05,0.94,-0.94,-0.12,-0.99,-0.99,-1.00
110.74,-0.07,0.92,-0.07,0.91,-0.91,-0.10,-0.98,-0.99,-0.99
111.85,-0.10,0.88,-0.10,0.88,-0.88,-0.08,-0.98,-0.98,-0.98
112.97,-0.13,0.86,-0.13,0.85,-0.85,-0.06,-0.98,-0.98,-0.99
114.10,-0.16,0.82,-0.16,0.82,-0.82,-0.04,-0.98,-0.98,-0.98
115.24,-0.19,0.79,-0.19,0.79,-0.79,-0.02,-0.98,-0.98,-0.98
116.39,-0.23,0.75,-0.22,0.75,-0.75,-0.00,-0.98,-0.97,-0.98
117.55,-0.26,0.72,-0.26,0.71,-0.71,0.01,-0.97,-0.97,-0.98
118.73,-0.31,0.67,-0.31,0.66,-0.66,0.03,-0.97,-0.97,-0.98
119.92,-0.36,0.61,-0.36,0.61,-0.61,0.04,-0.96,-0.96,-0.97
121.12,-0.42,0.55,-0.42,0.55,-0.55,0.06,-0.97,-0.96,-0.97
122.33,-0.48,0.49,-0.48,0.48,-0.48,0.07,-0.96,-0.96,-0.97
123.55,-0.55,0.41,-0.55,0.41,-0.41,0.09,-0.96,-0.96,-0.96
124.79,-0.62,0.34,-0.62,0.34,-0.34,0.10,-0.96,-0.96,-0.96
126.03,-0.70,0.26,-0.70,0.26,-0.26,0.11,-0.96,-0.96,-0.96
127.29,-0.78,0.18,-0.78,0.18,-0.18,0.12,-0.96,-0.96,-0.96
128.57,-0.87,0.10,-0.87,0.09,-0.09,0.13,-0.96,-0.96,-0.97
129.85,-0.96,0.01,-0.96,0.01,-0.00,0.14,-0.96,-0.96,-0.97
131.15,-1.05,-0.08,-1.05,-0.09,0.09,0.15,-0.96,-0.96,-0.97
132.46,-1.15,-0.18,-1.15,-0.18,0.19,0.15,-0.96,-0.96,-0.97
133.79,-1.25,-0.29,-1.25,-0.29,0.29,0.16,-0.96,-0.96,-0.96
135.12,-1.36,-0.39,-1.36,-0.40,0.40,0.17,-0.96,-0.96,-0.97
136.48,-1.47,-0.51,-1.47,-0.51,0.51,0.18,-0.96,-0.96,-0.96
137.84,-1.58,-0.62,-1.58,-0.62,0.62,0.18,-0.96,-0.96,-0.96
139.22,-1.70,-0.73,-1.70,-0.74,0.74,0.19,-0.96,-0.96,-0.97
140.61,-1.81,-0.84,-1.81,-0.85,0.85,0.19,-0.96,-0.96,-0.97
142.02,-1.92,-0.97,-1.92,-0.97,0.97,0.20,-0.95,-0.95,-0.95
143.44,-2.03,-1.08,-2.03,-1.08,1.08,0.20,-0.95,-0.95,-0.95
144.87,-2.14,-1.19,-2.14,-1.20,1.20,0.21,-0.94,-0.94,-0.95
146.32,-2.25,-1.30,-2.25,-1.31,1.30,0.21,-0.94,-0.94,-0.95
147.78,-2.35,-1.41,-2.35,-1.41,1.41,0.22,-0.94,-0.94,-0.94
149.26,-2.45,-1.51,-2.45,-1.51,1.51,0.22,-0.94,-0.94,-0.94
150.75,-2.54,-1.59,-2.54,-1.60,1.60,0.22,-0.94,-0.94,-0.95
152.26,-2.63,-1.68,-2.63,-1.68,1.68,0.23,-0.95,-0.95,-0.95
153.78,-2.70,-1.75,-2.70,-1.75,1.75,0.23,-0.95,-0.95,-0.95
155.32,-2.77,-1.81,-2.77,-1.82,1.81,0.24,-0.96,-0.96,-0.96
156.88,-2.83,-1.87,-2.83,-1.87,1.87,0.24,-0.96,-0.96,-0.96
158.44,-2.88,-1.91,-2.88,-1.91,1.91,0.25,-0.97,-0.97,-0.97
160.03,-2.92,-1.94,-2.92,-1.94,1.94,0.25,-0.98,-0.98,-0.98
161.63,-2.95,-1.96,-2.95,-1.96,1.97,0.26,-0.98,-0.98,-0.99
163.24,-2.97,-1.97,-2.97,-1.98,1.98,0.26,-0.99,-0.99,-1.00
164.88,-2.99,-1.99,-2.99,-1.99,1.99,0.27,-1.00,-1.00,-1.00
166.53,-2.99,-1.98,-2.99,-1.99,1.98,0.27,-1.01,-1.01,-1.01
168.19,-2.99,-1.97,-2.99,-1.97,1.97,0.28,-1.02,-1.02,-1.02
169.87,-2.98,-1.95,-2.98,-1.95,1.95,0.28,-1.03,-1.03,-1.03
171.57,-2.96,-1.92,-2.96,-1.93,1.92,0.29,-1.03,-1.04,-1.04
173.29,-2.94,-1.89,-2.94,-1.89,1.89,0.30,-1.05,-1.05,-1.05
175.02,-2.91,-1.85,-2.91,-1.85,1.85,0.30,-1.06,-1.06,-1.06
176.77,-2.88,-1.80,-2.88,-1.80,1.80,0.31,-1.08,-1.08,-1.08
178.54,-2.84,-1.74,-2.84,-1.75,1.75,0.32,-1.09,-1.09,-1.10
180.32,-2.79,-1.68,-2.79,-1.69,1.69,0.33,-1.10,-1.10,-1.11
182.13,-2.75,-1.63,-2.75,-1.63,1.63,0.33,-1.12,-1.11,-1.12
183.95,-2.70,-1.56,-2.70,-1.57,1.57,0.34,-1.12,-1.13,-1.14
185.79,-2.66,-1.51,-2.66,-1.51,1.51,0.35,-1.15,-1.15,-1.15
187.65,-2.62,-1.45,-2.62,-1.45,1.45,0.36,-1.17,-1.16,-1.17
189.52,-2.57,-1.39,-2.57,-1.40,1.39,0.37,-1.18,-1.18,-1.18
191.42,-2.52,-1.33,-2.52,-1.33,1.33,0.38,-1.19,-1.19,-1.19
193.33,-2.47,-1.27,-2.47,-1.27,1.27,0.39,-1.20,-1.20,-1.20
195.27,-2.41,-1.20,-2.41,-1.21,1.21,0.40,-1.20,-1.20,-1.21
197.22,-2.36,-1.14,-2.36,-1.14,1.15,0.41,-1.21,-1.21,-1.22
199.19,-2.31,-1.07,-2.31,-1.08,1.09,0.42,-1.22,-1.22,-1.24
201.18,-2.26,-1.02,-2.26,-1.02,1.03,0.42,-1.23,-1.23,-1.24
203.19,-2.21,-0.97,-2.21,-0.97,0.96,0.43,-1.25,-1.24,-1.24
205.23,-2.15,-0.90,-2.15,-0.91,0.90,0.44,-1.25,-1.25,-1.25
207.28,-2.09,-0.85,-2.09,-0.84,0.84,0.45,-1.25,-1.25,-1.24
209.35,-2.02,-0.77,-2.02,-0.78,0.77,0.46,-1.24,-1.25,-1.25
211.44,-1.96,-0.70,-1.96,-0.71,0.71,0.47,-1.25,-1.25,-1.26
213.56,-1.89,-0.64,-1.89,-0.64,0.64,0.47,-1.25,-1.25,-1.25
215.69,-1.82,-0.58,-1.82,-0.58,0.58,0.48,-1.24,-1.24,-1.24
217.85,-1.75,-0.51,-1.75,-0.51,0.51,0.48,-1.24,-1.24,-1.24
220.03,-1.68,-0.44,-1.68,-0.45,0.45,0.49,-1.23,-1.23,-1.24
222.23,-1.62,-0.38,-1.62,-0.39,0.39,0.49,-1.22,-1.22,-1.24
224.45,-1.56,-0.34,-1.56,-0.34,0.34,0.49,-1.22,-1.22,-1.22
226.70,-1.50,-0.29,-1.50,-0.29,0.30,0.49,-1.20,-1.21,-1.21
228.96,-1.45,-0.25,-1.45,-0.26,0.25,0.49,-1.20,-1.19,-1.20
231.25,-1.40,-0.22,-1.40,-0.22,0.22,0.49,-1.18,-1.18,-1.18
233.57,-1.36,-0.19,-1.36,-0.19,0.19,0.48,-1.17,-1.17,-1.17
235.90,-1.32,-0.16,-1.32,-0.16,0.17,0.48,-1.15,-1.15,-1.16
238.26,-1.29,-0.14,-1.29,-0.15,0.15,0.47,-1.14,-1.14,-1.15
240.64,-1.26,-0.13,-1.26,-0.13,0.14,0.46,-1.12,-1.12,-1.13
243.05,-1.24,-0.13,-1.24,-0.13,0.13,0.44,-1.11,-1.10,-1.11
245.48,-1.22,-0.13,-1.22,-0.13,0.13,0.43,-1.09,-1.09,-1.09
247.93,-1.20,-0.13,-1.20,-0.13,0.14,0.41,-1.06,-1.07,-1.07
250.41,-1.19,-0.13,-1.19,-0.14,0.14,0.39,-1.05,-1.04,-1.06
252.92,-1.17,-0.14,-1.17,-0.15,0.15,0.37,-1.02,-1.02,-1.03
255.45,-1.16,-0.16,-1.16,-0.16,0.15,0.34,-1.00,-1.00,-1.00
258.00,-1.14,-0.16,-1.14,-0.16,0.16,0.32,-0.98,-0.98,-0.98
260.58,-1.11,-0.15,-1.11,-0.16,0.15,0.29,-0.96,-0.96,-0.96
263.19,-1.08,-0.15,-1.08,-0.15,0.14,0.25,-0.94,-0.94,-0.93
265.82,-1.04,-0.13,-1.03,-0.13,0.12,0.22,-0.92,-0.91,-0.91
268.48,-0.98,-0.10,-0.98,-0.11,0.10,0.18,-0.88,-0.88,-0.88
271.16,-0.92,-0.07,-0.92,-0.07,0.07,0.14,-0.85,-0.85,-0.85
273.87,-0.85,-0.02,-0.85,-0.03,0.03,0.10,-0.82,-0.82,-0.83
276.61,-0.78,0.02,-0.78,0.02,-0.01,0.06,-0.79,-0.79,-0.80
279.38,-0.72,0.06,-0.72,0.06,-0.05,0.02,-0.77,-0.77,-0.78
282.17,-0.65,0.11,-0.65,0.10,-0.10,-0.03,-0.75,-0.75,-0.76
284.99,-0.58,0.15,-0.58,0.15,-0.15,-0.08,-0.73,-0.73,-0.73
287.84,-0.50,0.21,-0.50,0.20,-0.21,-0.13,-0.71,-0.71,-0.71
290.72,-0.42,0.26,-0.42,0.26,-0.27,-0.18,-0.69,-0.68,-0.68
293.63,-0.32,0.34,-0.32,0.33,-0.34,-0.23,-0.66,-0.66,-0.66
296.57,-0.23,0.40,-0.23,0.40,-0.41,-0.29,-0.64,-0.63,-0.63
299.53,-0.12,0.49,-0.12,0.49,-0.49,-0.35,-0.61,-0.61,-0.61
302.53,-0.01,0.58,-0.01,0.57,-0.57,-0.40,-0.58,-0.58,-0.59
305.55,0.11,0.66,0.11,0.66,-0.66,-0.46,-0.55,-0.55,-0.55
308.61,0.23,0.76,0.23,0.75,-0.75,-0.52,-0.51,-0.52,-0.53
311.69,0.35,0.85,0.35,0.84,-0.84,-0.58,-0.49,-0.49,-0.50
314.81,0.47,0.93,0.47,0.93,-0.93,-0.65,-0.46,-0.46,-0.46
317.96,0.59,1.03,0.59,1.03,-1.03,-0.71,-0.44,-0.44,-0.44
321.14,0.71,1.13,0.71,1.12,-1.13,-0.78,-0.42,-0.42,-0.42
324.35,0.83,1.23,0.83,1.23,-1.23,-0.84,-0.40,-0.40,-0.40
327.59,0.96,1.33,0.96,1.33,-1.34,-0.91,-0.38,-0.38,-0.37
330.87,1.10,1.45,1.10,1.45,-1.45,-0.98,-0.35,-0.35,-0.35
334.18,1.24,1.57,1.24,1.56,-1.56,-1.05,-0.32,-0.32,-0.33
337.52,1.38,1.69,1.38,1.68,-1.67,-1.12,-0.29,-0.30,-0.31
340.90,1.51,1.79,1.51,1.79,-1.79,-1.19,-0.28,-0.27,-0.28
344.30,1.64,1.90,1.64,1.90,-1.90,-1.27,-0.26,-0.26,-0.26
347.75,1.77,2.01,1.77,2.00,-2.00,-1.34,-0.23,-0.24,-0.24
351.23,1.89,2.11,1.89,2.11,-2.11,-1.42,-0.22,-0.22,-0.22
354.74,2.01,2.21,2.01,2.21,-2.21,-1.50,-0.20,-0.20,-0.20
358.28,2.12,2.30,2.12,2.30,-2.30,-1.57,-0.18,-0.18,-0.18
361.87,2.23,2.39,2.23,2.39,-2.38,-1.65,-0.15,-0.15,-0.16
365.49,2.33,2.47,2.33,2.47,-2.46,-1.73,-0.13,-0.13,-0.14
369.14,2.42,2.55,2.42,2.54,-2.54,-1.82,-0.12,-0.12,-0.13
372.83,2.50,2.61,2.50,2.61,-2.60,-1.90,-0.10,-0.10,-0.11
376.56,2.57,2.67,2.57,2.66,-2.66,-1.98,-0.09,-0.09,-0.10
380.33,2.64,2.71,2.64,2.71,-2.71,-2.07,-0.07,-0.07,-0.07
384.13,2.70,2.76,2.70,2.76,-2.76,-2.15,-0.06,-0.06,-0.06
387.97,2.76,2.81,2.76,2.80,-2.81,-2.24,-0.05,-0.05,-0.05
391.85,2.81,2.85,2.81,2.85,-2.85,-2.32,-0.04,-0.03,-0.04
395.77,2.87,2.89,2.87,2.89,-2.89,-2.41,-0.02,-0.02,-0.02
399.73,2.91,2.92,2.91,2.92,-2.92,-2.50,-0.01,-0.01,-0.01
403.72,2.96,2.96,2.96,2.95,-2.96,-2.58,0.01,0.00,0.00
407.76,3.00,2.99,3.00,2.98,-2.98,-2.67,0.02,0.02,0.01
411.84,3.04,3.01,3.04,3.01,-3.01,-2.76,0.03,0.03,0.03
415.96,3.08,3.04,3.08,3.03,-3.03,-2.84,0.05,0.05,0.04
420.12,3.10,3.05,3.10,3.05,-3.04,-2.93,0.06,0.06,0.05
424.32,3.12,3.06,3.12,3.06,-3.05,-3.01,0.07,0.07,0.06
428.56,3.13,3.06,3.13,3.06,-3.06,-3.09,0.08,0.08,0.07
432.85,3.14,3.06,3.14,3.06,-3.06,-3.17,0.08,0.09,0.08
437.18,3.15,3.06,3.15,3.05,-3.06,-3.25,0.10,0.10,0.09
441.55,3.16,3.05,3.16,3.05,-3.05,-3.32,0.11,0.11,0.11
445.96,3.17,3.05,3.17,3.05,-3.05,-3.39,0.12,0.12,0.12
450.42,3.18,3.05,3.18,3.05,-3.05,-3.45,0.13,0.13,0.13
454.93,3.20,3.05,3.20,3.05,-3.05,-3.52,0.15,0.15,0.15
459.48,3.22,3.06,3.22,3.05,-3.06,-3.57,0.16,0.16,0.16
464.07,3.24,3.06,3.24,3.06,-3.06,-3.62,0.18,0.18,0.18
468.71,3.26,3.06,3.26,3.06,-3.06,-3.66,0.20,0.20,0.20
473.40,3.28,3.07,3.28,3.06,-3.06,-3.70,0.23,0.22,0.21
478.13,3.29,3.06,3.29,3.06,-3.05,-3.73,0.24,0.24,0.23
482.91,3.29,3.05,3.29,3.05,-3.04,-3.76,0.25,0.25,0.24
487.74,3.29,3.03,3.29,3.03,-3.03,-3.77,0.26,0.26,0.26
492.62,3.29,3.01,3.29,3.01,-3.01,-3.78,0.28,0.28,0.28
497.55,3.28,2.99,3.28,2.99,-2.99,-3.78,0.29,0.29,0.29
502.52,3.27,2.96,3.27,2.96,-2.96,-3.78,0.31,0.31,0.31
507.55,3.27,2.95,3.27,2.94,-2.94,-3.76,0.33,0.33,0.32
512.62,3.25,2.91,3.25,2.91,-2.91,-3.74,0.34,0.35,0.34
517.75,3.24,2.88,3.24,2.88,-2.87,-3.71,0.37,0.37,0.36
522.93,3.22,2.84,3.22,2.84,-2.84,-3.67,0.38,0.38,0.38
528.16,3.20,2.81,3.20,2.80,-2.80,-3.62,0.40,0.40,0.39
533.44,3.18,2.77,3.18,2.77,-2.76,-3.57,0.42,0.42,0.41
538.77,3.16,2.73,3.16,2.73,-2.73,-3.51,0.43,0.43,0.43
544.16,3.14,2.69,3.14,2.69,-2.69,-3.45,0.45,0.45,0.45
549.60,3.12,2.65,3.12,2.65,-2.65,-3.38,0.47,0.47,0.47
555.10,3.10,2.62,3.10,2.62,-2.62,-3.30,0.48,0.48,0.48
560.65,3.09,2.59,3.09,2.59,-2.59,-3.22,0.50,0.50,0.50
566.25,3.08,2.56,3.08,2.56,-2.56,-3.13,0.52,0.52,0.52
571.92,3.07,2.54,3.07,2.54,-2.53,-3.04,0.54,0.54,0.53
577.64,3.06,2.52,3.06,2.51,-2.51,-2.95,0.56,0.55,0.54
583.41,3.05,2.49,3.05,2.49,-2.48,-2.86,0.57,0.57,0.56
589.25,3.04,2.46,3.04,2.46,-2.46,-2.76,0.58,0.59,0.58
595.14,3.04,2.44,3.04,2.44,-2.44,-2.66,0.60,0.60,0.60
601.09,3.03,2.42,3.03,2.41,-2.42,-2.56,0.61,0.61,0.61
607.10,3.03,2.40,3.03,2.40,-2.41,-2.45,0.62,0.63,0.63
613.17,3.04,2.39,3.04,2.39,-2.40,-2.35,0.64,0.65,0.65
