frequency,raw,error,smoothed,error_smoothed,equalization,fixed_band_eq,equalized_raw,equalized_smoothed,target
20.00,-39.00,-37.77,-39.01,-37.77,6.00,0.57,-33.00,-33.01,-1.24
20.20,-38.64,-37.42,-38.63,-37.40,6.00,0.58,-32.64,-32.63,-1.23
20.40,-38.27,-37.05,-38.27,-37.05,6.00,0.59,-32.27,-32.27,-1.22
20.61,-37.93,-36.72,-37.94,-36.73,6.00,0.61,-31.93,-31.94,-1.21
20.81,-37.62,-36.41,-37.63,-36.42,6.00,0.62,-31.62,-31.63,-1.21
21.02,-37.35,-36.15,-37.35,-36.15,6.00,0.63,-31.35,-31.35,-1.20
21.23,-37.08,-35.89,-37.08,-35.89,6.00,0.65,-31.08,-31.08,-1.19
21.44,-36.81,-35.63,-36.80,-35.62,6.00,0.66,-30.81,-30.80,-1.18
21.66,-36.55,-35.37,-36.53,-35.36,6.00,0.68,-30.55,-30.53,-1.18
21.87,-36.26,-35.09,-36.29,-35.12,6.00,0.70,-30.26,-30.29,-1.17
22.09,-36.07,-34.90,-36.07,-34.91,6.00,0.71,-30.07,-30.07,-1.17
22.31,-35.90,-34.74,-35.89,-34.73,6.00,0.73,-29.90,-29.89,-1.16
22.54,-35.74,-34.59,-35.74,-34.58,6.00,0.74,-29.74,-29.74,-1.16
22.76,-35.57,-34.42,-35.58,-34.42,6.00,0.76,-29.57,-29.58,-1.15
22.99,-35.41,-34.27,-35.41,-34.26,6.00,0.78,-29.41,-29.41,-1.15
23.22,-35.24,-34.10,-35.24,-34.10,6.00,0.80,-29.24,-29.24,-1.15
23.45,-35.07,-33.93,-35.07,-33.93,6.00,0.82,-29.07,-29.07,-1.14
23.69,-34.92,-33.79,-34.91,-33.77,6.00,0.83,-28.92,-28.91,-1.14
23.92,-34.74,-33.60,-34.76,-33.62,6.00,0.85,-28.74,-28.76,-1.14
24.16,-34.63,-33.49,-34.63,-33.50,6.00,0.87,-28.63,-28.63,-1.14
24.40,-34.52,-33.39,-34.52,-33.39,6.00,0.90,-28.52,-28.52,-1.13
24.65,-34.42,-33.30,-34.42,-33.29,6.00,0.92,-28.42,-28.42,-1.13
24.89,-34.32,-33.19,-34.32,-33.19,6.00,0.94,-28.32,-28.32,-1.13
25.14,-34.21,-33.08,-34.21,-33.09,6.00,0.96,-28.21,-28.21,-1.13
25.39,-34.11,-32.98,-34.11,-32.98,6.00,0.98,-28.11,-28.11,-1.13
25.65,-34.00,-32.88,-34.00,-32.88,6.00,1.01,-28.00,-28.00,-1.13
25.91,-33.90,-32.78,-33.90,-32.77,6.00,1.03,-27.90,-27.90,-1.13
26.16,-33.79,-32.66,-33.79,-32.66,6.00,1.06,-27.79,-27.79,-1.13
26.43,-33.69,-32.57,-33.70,-32.57,6.00,1.08,-27.69,-27.70,-1.13
26.69,-33.63,-32.51,-33.64,-32.51,6.00,1.11,-27.63,-27.64,-1.13
26.96,-33.60,-32.48,-33.60,-32.47,6.00,1.13,-27.60,-27.60,-1.13
27.23,-33.58,-32.46,-33.58,-32.45,6.00,1.16,-27.58,-27.58,-1.13
27.50,-33.55,-32.43,-33.55,-32.43,6.00,1.19,-27.55,-27.55,-1.13
27.77,-33.53,-32.40,-33.53,-32.40,6.00,1.22,-27.53,-27.53,-1.13
28.05,-33.50,-32.37,-33.50,-32.38,6.00,1.25,-27.50,-27.50,-1.13
28.33,-33.48,-32.35,-33.48,-32.35,6.00,1.28,-27.48,-27.48,-1.13
28.62,-33.45,-32.33,-33.46,-32.33,6.00,1.31,-27.45,-27.46,-1.13
28.90,-33.43,-32.30,-33.43,-32.31,6.00,1.34,-27.43,-27.43,-1.13
29.19,-33.40,-32.28,-33.40,-32.28,6.00,1.38,-27.40,-27.40,-1.13
29.48,-33.37,-32.24,-33.36,-32.24,6.00,1.41,-27.37,-27.36,-1.13
29.78,-33.31,-32.19,-33.31,-32.19,6.00,1.45,-27.31,-27.31,-1.13
30.08,-33.25,-32.13,-33.26,-32.13,6.00,1.48,-27.25,-27.26,-1.13
30.38,-33.20,-32.07,-33.20,-32.07,6.00,1.52,-27.20,-27.20,-1.14
30.68,-33.14,-32.01,-33.14,-32.00,6.00,1.56,-27.14,-27.14,-1.14
30.99,-33.08,-31.95,-33.08,-31.94,6.00,1.60,-27.08,-27.08,-1.14
31.30,-33.02,-31.88,-33.03,-31.88,6.00,1.64,-27.02,-27.03,-1.15
31.61,-32.97,-31.83,-32.97,-31.82,6.00,1.68,-26.97,-26.97,-1.15
31.93,-32.91,-31.76,-32.91,-31.75,6.00,1.73,-26.91,-26.91,-1.16
32.24,-32.85,-31.69,-32.85,-31.69,6.00,1.77,-26.85,-26.85,-1.16
32.57,-32.80,-31.64,-32.81,-31.64,6.00,1.82,-26.80,-26.81,-1.17
32.89,-32.78,-31.61,-32.78,-31.61,6.00,1.86,-26.78,-26.78,-1.17
33.22,-32.77,-31.60,-32.77,-31.60,6.00,1.91,-26.77,-26.77,-1.18
33.55,-32.76,-31.58,-32.76,-31.58,6.00,1.96,-26.76,-26.76,-1.18
33.89,-32.75,-31.57,-32.75,-31.56,6.00,2.01,-26.75,-26.75,-1.19
34.23,-32.73,-31.54,-32.74,-31.54,6.00,2.07,-26.73,-26.74,-1.20
34.57,-32.72,-31.52,-32.72,-31.52,6.00,2.12,-26.72,-26.72,-1.21
34.92,-32.71,-31.50,-32.71,-31.50,6.00,2.18,-26.71,-26.71,-1.22
35.27,-32.70,-31.49,-32.71,-31.48,6.00,2.23,-26.70,-26.71,-1.22
35.62,-32.69,-31.46,-32.70,-31.46,6.00,2.29,-26.69,-26.70,-1.24
35.97,-32.68,-31.43,-32.67,-31.42,6.00,2.36,-26.68,-26.67,-1.25
36.33,-32.62,-31.36,-32.62,-31.35,6.00,2.42,-26.62,-26.62,-1.26
36.70,-32.53,-31.26,-32.54,-31.26,6.00,2.48,-26.53,-26.54,-1.28
37.06,-32.44,-31.15,-32.45,-31.16,6.00,2.55,-26.44,-26.45,-1.29
37.43,-32.36,-31.05,-32.36,-31.05,6.00,2.62,-26.36,-26.36,-1.31
37.81,-32.27,-30.95,-32.28,-30.96,6.00,2.69,-26.27,-26.28,-1.33
38.19,-32.19,-30.86,-32.21,-30.87,6.00,2.76,-26.19,-26.21,-1.34
38.57,-32.10,-30.75,-32.10,-30.74,6.00,2.84,-26.10,-26.10,-1.36
38.95,-31.97,-30.59,-31.91,-30.53,6.00,2.92,-25.97,-25.91,-1.38
39.34,-31.61,-30.21,-31.63,-30.23,6.00,3.00,-25.61,-25.63,-1.40
39.74,-31.26,-29.85,-31.30,-29.88,6.00,3.08,-25.26,-25.30,-1.42
40.14,-30.92,-29.48,-30.92,-29.48,6.00,3.17,-24.92,-24.92,-1.44
40.54,-30.56,-29.10,-30.51,-29.05,6.00,3.25,-24.56,-24.51,-1.46
40.94,-30.03,-28.54,-30.04,-28.55,6.00,3.35,-24.03,-24.04,-1.49
41.35,-29.50,-27.99,-29.52,-28.01,6.00,3.44,-23.50,-23.52,-1.51
41.76,-28.98,-27.44,-28.98,-27.45,6.00,3.53,-22.98,-22.98,-1.54
42.18,-28.47,-26.91,-28.47,-26.91,6.00,3.63,-22.47,-22.47,-1.56
42.60,-27.97,-26.38,-27.96,-26.37,6.00,3.73,-21.97,-21.96,-1.59
43.03,-27.46,-25.84,-27.47,-25.86,6.00,3.84,-21.46,-21.47,-1.62
43.46,-27.00,-25.35,-27.02,-25.37,6.00,3.95,-21.00,-21.02,-1.65
43.90,-26.60,-24.92,-26.58,-24.90,6.00,4.06,-20.60,-20.58,-1.68
44.33,-26.17,-24.46,-26.17,-24.46,6.00,4.17,-20.17,-20.17,-1.71
44.78,-25.75,-24.02,-25.77,-24.03,6.00,4.29,-19.75,-19.77,-1.74
45.23,-25.39,-23.62,-25.38,-23.61,6.00,4.41,-19.39,-19.38,-1.77
45.68,-25.00,-23.20,-24.99,-23.18,6.00,4.53,-19.00,-18.99,-1.81
46.13,-24.64,-22.79,-24.63,-22.79,6.00,4.65,-18.64,-18.63,-1.85
46.60,-24.29,-22.40,-24.32,-22.44,6.00,4.78,-18.29,-18.32,-1.89
47.06,-24.06,-22.14,-24.06,-22.14,6.00,4.92,-18.06,-18.06,-1.92
47.53,-23.87,-21.91,-23.86,-21.89,6.00,5.05,-17.87,-17.86,-1.96
48.01,-23.67,-21.67,-23.67,-21.67,6.00,5.19,-17.67,-17.67,-2.01
48.49,-23.48,-21.44,-23.48,-21.43,6.00,5.33,-17.48,-17.48,-2.05
48.97,-23.29,-21.19,-23.27,-21.18,6.00,5.47,-17.29,-17.27,-2.10
49.46,-23.09,-20.95,-23.09,-20.95,6.00,5.62,-17.09,-17.09,-2.14
49.96,-22.90,-20.72,-22.94,-20.76,6.00,5.76,-16.90,-16.94,-2.19
50.46,-22.85,-20.63,-22.85,-20.63,6.00,5.91,-16.85,-16.85,-2.23
50.96,-22.82,-20.55,-22.81,-20.54,6.00,6.07,-16.82,-16.81,-2.27
51.47,-22.79,-20.48,-22.79,-20.48,6.00,6.22,-16.79,-16.79,-2.31
51.99,-22.76,-20.41,-22.76,-20.41,6.00,6.37,-16.76,-16.76,-2.36
52.51,-22.73,-20.34,-22.73,-20.33,6.00,6.53,-16.73,-16.73,-2.40
53.03,-22.69,-20.26,-22.70,-20.25,6.00,6.68,-16.69,-16.70,-2.44
53.56,-22.66,-20.17,-22.66,-20.17,6.00,6.84,-16.66,-16.66,-2.49
54.10,-22.63,-20.10,-22.61,-20.07,6.00,6.99,-16.63,-16.61,-2.54
54.64,-22.60,-20.02,-22.60,-20.01,6.00,7.14,-16.60,-16.60,-2.59
55.18,-22.59,-19.96,-22.66,-20.02,6.00,7.29,-16.59,-16.66,-2.64
55.74,-22.80,-20.11,-22.79,-20.11,6.00,7.43,-16.80,-16.79,-2.69
56.29,-23.02,-20.30,-23.00,-20.27,6.00,7.57,-17.02,-17.00,-2.73
56.86,-23.23,-20.46,-23.23,-20.46,6.00,7.71,-17.23,-17.23,-2.77
57.42,-23.44,-20.63,-23.44,-20.63,6.00,7.84,-17.44,-17.44,-2.82
58.00,-23.65,-20.79,-23.66,-20.80,6.00,7.96,-17.65,-17.66,-2.86
58.58,-23.87,-20.97,-23.87,-20.97,6.00,8.07,-17.87,-17.87,-2.90
59.16,-24.08,-21.15,-24.07,-21.13,6.00,8.18,-18.08,-18.07,-2.94
59.76,-24.29,-21.31,-24.28,-21.30,6.00,8.27,-18.29,-18.28,-2.98
60.35,-24.50,-21.47,-24.59,-21.56,6.00,8.35,-18.50,-18.59,-3.04
60.96,-24.85,-21.75,-24.90,-21.80,6.00,8.42,-18.85,-18.90,-3.10
61.57,-25.28,-22.12,-25.11,-21.95,6.00,8.48,-19.28,-19.11,-3.16
62.18,-25.16,-21.93,-25.16,-21.93,6.00,8.53,-19.16,-19.16,-3.23
62.80,-24.97,-21.68,-25.03,-21.74,6.00,8.56,-18.97,-19.03,-3.29
63.43,-24.78,-21.43,-24.79,-21.44,6.00,8.58,-18.78,-18.79,-3.35
64.07,-24.59,-21.20,-24.59,-21.19,6.00,8.59,-18.59,-18.59,-3.40
64.71,-24.40,-20.96,-24.40,-20.96,6.00,8.59,-18.40,-18.40,-3.45
65.35,-24.21,-20.71,-24.21,-20.72,6.00,8.57,-18.21,-18.21,-3.50
66.01,-24.02,-20.48,-23.98,-20.44,6.00,8.54,-18.02,-17.98,-3.55
66.67,-23.82,-20.23,-23.81,-20.21,6.00,8.50,-17.82,-17.81,-3.60
67.33,-23.63,-19.98,-23.75,-20.09,6.00,8.45,-17.63,-17.75,-3.66
68.01,-23.83,-20.11,-23.82,-20.10,6.00,8.39,-17.83,-17.82,-3.72
68.69,-24.04,-20.26,-24.00,-20.23,6.00,8.32,-18.04,-18.00,-3.78
69.37,-24.24,-20.42,-24.25,-20.41,6.00,8.24,-18.24,-18.25,-3.83
70.07,-24.45,-20.56,-24.45,-20.56,6.00,8.16,-18.45,-18.45,-3.89
70.77,-24.65,-20.70,-24.65,-20.71,6.00,8.07,-18.65,-18.65,-3.95
71.48,-24.85,-20.84,-24.86,-20.85,6.00,7.97,-18.85,-18.86,-4.01
72.19,-25.06,-21.00,-25.05,-20.98,6.00,7.88,-19.06,-19.05,-4.07
72.91,-25.26,-21.13,-25.25,-21.12,6.00,7.78,-19.26,-19.25,-4.14
73.64,-25.47,-21.28,-25.49,-21.29,6.00,7.68,-19.47,-19.49,-4.20
74.38,-25.75,-21.49,-25.83,-21.57,6.00,7.57,-19.75,-19.83,-4.26
75.12,-26.11,-21.80,-26.13,-21.81,6.00,7.47,-20.11,-20.13,-4.32
75.87,-26.47,-22.10,-26.31,-21.93,6.00,7.37,-20.47,-20.31,-4.37
76.63,-26.27,-21.84,-26.30,-21.87,6.00,7.27,-20.27,-20.30,-4.43
77.40,-26.06,-21.59,-26.12,-21.64,6.00,7.17,-20.06,-20.12,-4.48
78.17,-25.85,-21.31,-25.86,-21.32,6.00,7.07,-19.85,-19.86,-4.54
78.95,-25.65,-21.06,-25.65,-21.06,6.00,6.98,-19.65,-19.65,-4.59
79.74,-25.44,-20.80,-25.44,-20.80,6.00,6.89,-19.44,-19.44,-4.64
80.54,-25.24,-20.54,-25.24,-20.54,6.00,6.80,-19.24,-19.24,-4.70
81.35,-25.03,-20.28,-25.02,-20.27,6.00,6.71,-19.03,-19.02,-4.76
82.16,-24.82,-20.01,-24.81,-20.00,6.00,6.63,-18.82,-18.81,-4.81
82.98,-24.62,-19.75,-24.64,-19.78,6.00,6.55,-18.62,-18.64,-4.87
83.81,-24.52,-19.59,-24.55,-19.62,6.00,6.48,-18.52,-18.55,-4.93
84.65,-24.54,-19.56,-24.53,-19.54,6.00,6.41,-18.54,-18.53,-4.99
85.50,-24.56,-19.52,-24.55,-19.51,6.00,6.34,-18.56,-18.55,-5.05
86.35,-24.58,-19.48,-24.58,-19.48,6.00,6.28,-18.58,-18.58,-5.10
87.22,-24.60,-19.45,-24.60,-19.44,6.00,6.23,-18.60,-18.60,-5.16
88.09,-24.62,-19.41,-24.62,-19.41,6.00,6.18,-18.62,-18.62,-5.22
88.97,-24.64,-19.37,-24.64,-19.37,6.00,6.13,-18.64,-18.64,-5.28
89.86,-24.66,-19.33,-24.66,-19.32,6.00,6.09,-18.66,-18.66,-5.34
90.76,-24.68,-19.29,-24.67,-19.27,6.00,6.05,-18.68,-18.67,-5.40
91.66,-24.70,-19.23,-24.70,-19.24,6.00,6.01,-18.70,-18.70,-5.47
92.58,-24.74,-19.22,-24.77,-19.24,6.00,5.98,-18.74,-18.77,-5.53
93.51,-24.86,-19.27,-24.86,-19.27,6.00,5.96,-18.86,-18.86,-5.59
94.44,-24.98,-19.34,-24.97,-19.32,6.00,5.94,-18.98,-18.97,-5.65
95.39,-25.09,-19.37,-25.10,-19.38,6.00,5.92,-19.09,-19.10,-5.72
96.34,-25.21,-19.43,-25.21,-19.43,6.00,5.91,-19.21,-19.21,-5.79
97.30,-25.33,-19.49,-25.33,-19.48,6.00,5.90,-19.33,-19.33,-5.85
98.28,-25.44,-19.52,-25.45,-19.53,6.00,5.89,-19.44,-19.45,-5.92
99.26,-25.56,-19.58,-25.56,-19.58,6.00,5.89,-19.56,-19.56,-5.99
100.25,-25.68,-19.63,-25.70,-19.64,6.00,5.89,-19.68,-19.70,-6.06
101.25,-25.79,-19.69,-25.81,-19.69,6.00,5.90,-19.79,-19.81,-6.11
102.27,-25.91,-19.74,-25.86,-19.69,6.00,5.90,-19.91,-19.86,-6.17
103.29,-25.85,-19.63,-25.86,-19.63,6.00,5.91,-19.85,-19.86,-6.23
104.32,-25.78,-19.49,-25.80,-19.51,6.00,5.93,-19.78,-19.80,-6.29
105.37,-25.71,-19.37,-25.71,-19.37,6.00,5.94,-19.71,-19.71,-6.35
106.42,-25.63,-19.24,-25.64,-19.23,6.00,5.96,-19.63,-19.64,-6.40
107.48,-25.56,-19.09,-25.56,-19.10,6.00,5.97,-19.56,-19.56,-6.47
108.56,-25.49,-18.97,-25.49,-18.96,6.00,5.99,-19.49,-19.49,-6.53
109.64,-25.41,-18.82,-25.42,-18.83,6.00,6.01,-19.41,-19.42,-6.59
110.74,-25.34,-18.70,-25.33,-18.68,6.00,6.03,-19.34,-19.33,-6.65
111.85,-25.26,-18.56,-25.25,-18.54,6.00,6.05,-19.26,-19.25,-6.71
112.97,-25.19,-18.42,-25.23,-18.46,6.00,6.06,-19.19,-19.23,-6.78
114.10,-25.26,-18.43,-25.28,-18.44,6.00,6.08,-19.26,-19.28,-6.84
115.24,-25.42,-18.51,-25.40,-18.50,6.00,6.09,-19.42,-19.40,-6.91
116.39,-25.58,-18.61,-25.57,-18.60,6.00,6.11,-19.58,-19.57,-6.98
117.55,-25.73,-18.70,-25.74,-18.69,6.00,6.12,-19.73,-19.74,-7.04
118.73,-25.89,-18.78,-25.89,-18.79,6.00,6.13,-19.89,-19.89,-7.11
119.92,-26.05,-18.88,-26.05,-18.89,6.00,6.13,-20.05,-20.05,-7.17
121.12,-26.21,-18.99,-26.21,-18.99,6.00,6.14,-20.21,-20.21,-7.22
122.33,-26.37,-19.09,-26.37,-19.09,6.00,6.14,-20.37,-20.37,-7.28
123.55,-26.53,-19.20,-26.53,-19.19,6.00,6.13,-20.53,-20.53,-7.34
124.79,-26.69,-19.29,-26.69,-19.30,6.00,6.13,-20.69,-20.69,-7.40
126.03,-26.86,-19.41,-26.89,-19.44,6.00,6.12,-20.86,-20.89,-7.46
127.29,-27.05,-19.54,-27.07,-19.55,6.00,6.10,-21.05,-21.07,-7.52
128.57,-27.25,-19.66,-27.17,-19.59,6.00,6.08,-21.25,-21.17,-7.59
129.85,-27.17,-19.52,-27.17,-19.53,6.00,6.06,-21.17,-21.17,-7.65
131.15,-27.05,-19.35,-27.08,-19.37,6.00,6.04,-21.05,-21.08,-7.71
132.46,-26.93,-19.16,-26.94,-19.17,6.00,6.01,-20.93,-20.94,-7.77
133.79,-26.81,-18.99,-26.81,-18.99,6.00,5.98,-20.81,-20.81,-7.83
135.12,-26.69,-18.80,-26.69,-18.81,6.00,5.95,-20.69,-20.69,-7.89
136.48,-26.57,-18.64,-26.59,-18.64,6.00,5.91,-20.57,-20.59,-7.94
137.84,-26.45,-18.46,-26.46,-18.46,6.00,5.88,-20.45,-20.46,-8.00
139.22,-26.32,-18.27,-26.29,-18.23,6.00,5.84,-20.32,-20.29,-8.06
140.61,-26.06,-17.95,-26.07,-17.96,6.00,5.80,-20.06,-20.07,-8.11
142.02,-25.79,-17.64,-25.81,-17.65,6.00,5.76,-19.79,-19.81,-8.16
143.44,-25.53,-17.33,-25.53,-17.33,6.00,5.73,-19.53,-19.53,-8.21
144.87,-25.27,-17.02,-25.27,-17.02,6.00,5.69,-19.27,-19.27,-8.25
146.32,-25.00,-16.71,-25.00,-16.70,6.00,5.65,-19.00,-19.00,-8.30
147.78,-24.74,-16.39,-24.74,-16.39,6.00,5.61,-18.74,-18.74,-8.35
149.26,-24.48,-16.08,-24.51,-16.11,6.00,5.58,-18.48,-18.51,-8.40
150.75,-24.31,-15.86,-24.31,-15.87,6.00,5.54,-18.31,-18.31,-8.45
152.26,-24.16,-15.67,-24.15,-15.66,6.00,5.51,-18.16,-18.15,-8.49
153.78,-24.02,-15.48,-24.02,-15.49,6.00,5.48,-18.02,-18.02,-8.54
155.32,-23.90,-15.31,-23.91,-15.33,6.00,5.45,-17.90,-17.91,-8.59
156.88,-23.82,-15.19,-23.82,-15.18,6.00,5.43,-17.82,-17.82,-8.64
158.44,-23.74,-15.05,-23.74,-15.05,6.00,5.40,-17.74,-17.74,-8.69
160.03,-23.66,-14.93,-23.66,-14.92,6.00,5.38,-17.66,-17.66,-8.74
161.63,-23.57,-14.79,-23.58,-14.79,6.00,5.37,-17.57,-17.58,-8.79
163.24,-23.49,-14.65,-23.49,-14.66,6.00,5.36,-17.49,-17.49,-8.84
164.88,-23.41,-14.53,-23.41,-14.52,6.00,5.35,-17.41,-17.41,-8.89
166.53,-23.33,-14.40,-23.33,-14.39,6.00,5.34,-17.33,-17.33,-8.94
168.19,-23.25,-14.26,-23.25,-14.26,6.00,5.34,-17.25,-17.25,-8.99
169.87,-23.17,-14.13,-23.18,-14.14,6.00,5.34,-17.17,-17.18,-9.04
171.57,-23.11,-14.02,-23.12,-14.04,6.00,5.35,-17.11,-17.12,-9.09
173.29,-23.09,-13.96,-23.09,-13.95,6.00,5.36,-17.09,-17.09,-9.14
175.02,-23.08,-13.90,-23.08,-13.89,6.00,5.37,-17.08,-17.08,-9.19
176.77,-23.06,-13.83,-23.06,-13.82,6.00,5.39,-17.06,-17.06,-9.24
178.54,-23.04,-13.76,-23.04,-13.76,6.00,5.41,-17.04,-17.04,-9.29
180.32,-23.02,-13.68,-23.02,-13.69,6.00,5.44,-17.02,-17.02,-9.34
182.13,-23.00,-13.62,-23.00,-13.62,6.00,5.47,-17.00,-17.00,-9.39
183.95,-22.98,-13.56,-22.98,-13.55,6.00,5.50,-16.98,-16.98,-9.43
185.79,-22.96,-13.49,-22.97,-13.49,6.00,5.54,-16.96,-16.97,-9.48
187.65,-22.95,-13.43,-22.95,-13.42,6.00,5.59,-16.95,-16.95,-9.53
189.52,-22.92,-13.34,-22.92,-13.34,6.00,5.63,-16.92,-16.92,-9.58
191.42,-22.88,-13.27,-22.88,-13.26,6.00,5.68,-16.88,-16.88,-9.62
193.33,-22.83,-13.17,-22.84,-13.17,6.00,5.73,-16.83,-16.84,-9.67
195.27,-22.79,-13.09,-22.79,-13.08,6.00,5.79,-16.79,-16.79,-9.71
197.22,-22.74,-12.99,-22.75,-12.99,6.00,5.85,-16.74,-16.75,-9.76
199.19,-22.70,-12.91,-22.70,-12.90,6.00,5.91,-16.70,-16.70,-9.80
201.18,-22.66,-12.82,-22.66,-12.82,6.00,5.97,-16.66,-16.66,-9.84
203.19,-22.61,-12.73,-22.62,-12.74,6.00,6.04,-16.61,-16.62,-9.88
205.23,-22.57,-12.67,-22.57,-12.66,6.00,6.11,-16.57,-16.57,-9.91
207.28,-22.52,-12.58,-22.52,-12.58,6.00,6.18,-16.52,-16.52,-9.95
209.35,-22.48,-12.50,-22.48,-12.50,6.00,6.25,-16.48,-16.48,-9.99
211.44,-22.43,-12.41,-22.43,-12.42,6.00,6.32,-16.43,-16.43,-10.02
213.56,-22.39,-12.35,-22.39,-12.35,6.00,6.39,-16.39,-16.39,-10.05
215.69,-22.35,-12.27,-22.35,-12.27,6.00,6.46,-16.35,-16.35,-10.08
217.85,-22.31,-12.21,-22.31,-12.20,6.00,6.53,-16.31,-16.31,-10.11
220.03,-22.27,-12.13,-22.27,-12.13,6.00,6.60,-16.27,-16.27,-10.15
222.23,-22.23,-12.06,-22.23,-12.05,6.00,6.66,-16.23,-16.23,-10.18
224.45,-22.18,-11.98,-22.19,-11.98,6.00,6.72,-16.18,-16.19,-10.21
226.70,-22.14,-11.92,-22.14,-11.92,6.00,6.78,-16.14,-16.14,-10.23
228.96,-22.10,-11.85,-22.10,-11.85,6.00,6.83,-16.10,-16.10,-10.25
231.25,-22.06,-11.78,-22.06,-11.78,6.00,6.88,-16.06,-16.06,-10.28
233.57,-22.01,-11.72,-22.01,-11.71,6.00,6.92,-16.01,-16.01,-10.30
235.90,-21.95,-11.63,-21.96,-11.63,6.00,6.95,-15.95,-15.96,-10.33
238.26,-21.90,-11.56,-21.90,-11.56,6.00,6.97,-15.90,-15.90,-10.35
240.64,-21.85,-11.49,-21.85,-11.49,6.00,6.99,-15.85,-15.85,-10.36
243.05,-21.79,-11.42,-21.80,-11.42,6.00,7.00,-15.79,-15.80,-10.38
245.48,-21.74,-11.35,-21.74,-11.34,6.00,7.00,-15.74,-15.74,-10.40
247.93,-21.68,-11.26,-21.68,-11.27,6.00,6.99,-15.68,-15.68,-10.42
250.41,-21.63,-11.20,-21.63,-11.20,6.00,6.97,-15.63,-15.63,-10.43
252.92,-21.57,-11.14,-21.58,-11.14,6.00,6.94,-15.57,-15.58,-10.44
255.45,-21.52,-11.07,-21.52,-11.06,6.00,6.91,-15.52,-15.52,-10.46
258.00,-21.45,-10.99,-21.45,-10.98,6.00,6.86,-15.45,-15.45,-10.47
260.58,-21.36,-10.89,-21.37,-10.89,6.00,6.80,-15.36,-15.37,-10.48
263.19,-21.27,-10.79,-21.27,-10.79,6.00,6.74,-15.27,-15.27,-10.49
265.82,-21.18,-10.69,-21.18,-10.69,6.00,6.67,-15.18,-15.18,-10.50
268.48,-21.09,-10.59,-21.09,-10.59,6.00,6.59,-15.09,-15.09,-10.51
271.16,-21.00,-10.48,-21.00,-10.48,6.00,6.50,-15.00,-15.00,-10.52
273.87,-20.91,-10.38,-20.91,-10.38,6.00,6.41,-14.91,-14.91,-10.53
276.61,-20.82,-10.28,-20.82,-10.28,6.00,6.31,-14.82,-14.82,-10.54
279.38,-20.73,-10.19,-20.73,-10.19,6.00,6.20,-14.73,-14.73,-10.55
282.17,-20.64,-10.09,-20.64,-10.10,6.00,6.09,-14.64,-14.64,-10.55
284.99,-20.55,-10.00,-20.55,-10.01,6.00,5.98,-14.55,-14.55,-10.55
287.84,-20.47,-9.92,-20.47,-9.92,6.00,5.87,-14.47,-14.47,-10.55
290.72,-20.38,-9.82,-20.39,-9.83,6.00,5.75,-14.38,-14.39,-10.56
293.63,-20.30,-9.75,-20.30,-9.75,6.00,5.63,-14.30,-14.30,-10.56
296.57,-20.22,-9.67,-20.22,-9.66,6.00,5.52,-14.22,-14.22,-10.56
299.53,-20.13,-9.58,-20.14,-9.58,6.00,5.40,-14.13,-14.14,-10.56
302.53,-20.05,-9.50,-20.05,-9.49,6.00,5.28,-14.05,-14.05,-10.56
305.55,-19.96,-9.41,-19.97,-9.41,6.00,5.16,-13.96,-13.97,-10.56
308.61,-19.88,-9.33,-19.88,-9.32,6.00,5.04,-13.88,-13.88,-10.56
311.69,-19.80,-9.24,-19.80,-9.24,6.00,4.92,-13.80,-13.80,-10.56
314.81,-19.71,-9.16,-19.72,-9.16,6.00,4.81,-13.71,-13.72,-10.56
317.96,-19.64,-9.09,-19.64,-9.08,6.00,4.69,-13.64,-13.64,-10.56
321.14,-19.57,-9.02,-19.57,-9.01,6.00,4.58,-13.57,-13.57,-10.56
324.35,-19.50,-8.95,-19.50,-8.95,6.00,4.47,-13.50,-13.50,-10.56
327.59,-19.43,-8.88,-19.43,-8.88,6.00,4.37,-13.43,-13.43,-10.55
330.87,-19.35,-8.81,-19.40,-8.85,6.04,4.26,-13.31,-13.36,-10.55
334.18,-19.28,-8.74,-19.32,-8.77,6.09,4.16,-13.19,-13.23,-10.55
337.52,-19.21,-8.67,-19.09,-8.55,6.13,4.06,-13.08,-12.96,-10.55
340.90,-18.70,-8.17,-18.67,-8.13,6.10,3.97,-12.60,-12.57,-10.54
344.30,-18.02,-7.48,-18.07,-7.54,5.99,3.87,-12.03,-12.08,-10.54
347.75,-17.34,-6.82,-17.36,-6.83,5.79,3.78,-11.56,-11.57,-10.53
351.23,-16.66,-6.14,-16.66,-6.14,5.49,3.70,-11.17,-11.17,-10.53
354.74,-15.98,-5.47,-15.98,-5.46,5.13,3.61,-10.85,-10.85,-10.52
358.28,-15.30,-4.78,-15.26,-4.75,4.74,3.53,-10.57,-10.52,-10.52
361.87,-14.62,-4.12,-14.59,-4.08,4.32,3.45,-10.30,-10.27,-10.51
365.49,-13.94,-3.45,-14.06,-3.56,3.91,3.38,-10.03,-10.15,-10.50
369.14,-13.70,-3.21,-13.72,-3.23,3.53,3.30,-10.18,-10.20,-10.50
372.83,-13.60,-3.12,-13.55,-3.06,3.20,3.23,-10.41,-10.35,-10.49
376.56,-13.49,-3.01,-13.48,-3.00,2.95,3.17,-10.54,-10.53,-10.49
380.33,-13.39,-2.92,-13.39,-2.91,2.80,3.10,-10.59,-10.59,-10.48
384.13,-13.28,-2.81,-13.28,-2.81,2.72,3.04,-10.56,-10.57,-10.48
387.97,-13.18,-2.72,-13.18,-2.71,2.66,2.98,-10.53,-10.52,-10.47
391.85,-13.07,-2.62,-13.07,-2.61,2.59,2.92,-10.48,-10.48,-10.46
395.77,-12.97,-2.52,-12.97,-2.52,2.51,2.86,-10.46,-10.46,-10.46
399.73,-12.86,-2.42,-12.86,-2.42,2.42,2.81,-10.44,-10.44,-10.45
403.72,-12.76,-2.32,-12.76,-2.32,2.32,2.76,-10.44,-10.44,-10.44
