frequency,raw
20,4.03
20.2,4.03
20.4,4.02
20.61,4.01
20.81,4
21.02,3.99
21.23,3.98
21.44,3.98
21.66,3.97
21.87,3.95
22.09,3.93
22.31,3.9
22.54,3.88
22.76,3.86
22.99,3.84
23.22,3.82
23.45,3.8
23.69,3.78
23.92,3.77
24.16,3.75
24.4,3.74
24.65,3.73
24.89,3.72
25.14,3.71
25.39,3.7
25.65,3.69
25.91,3.68
26.16,3.67
26.43,3.66
26.69,3.65
26.96,3.64
27.23,3.63
27.5,3.62
27.77,3.61
28.05,3.6
28.33,3.59
28.62,3.57
28.9,3.56
29.19,3.54
29.48,3.52
29.78,3.51
30.08,3.49
30.38,3.48
30.68,3.46
30.99,3.46
31.3,3.45
31.61,3.45
31.93,3.44
32.24,3.44
32.57,3.43
32.89,3.43
33.22,3.42
33.55,3.41
33.89,3.4
34.23,3.38
34.57,3.37
34.92,3.36
35.27,3.35
35.62,3.33
35.97,3.32
36.33,3.31
36.7,3.3
37.06,3.29
37.43,3.28
37.81,3.27
38.19,3.26
38.57,3.25
38.95,3.24
39.34,3.23
39.74,3.21
40.14,3.2
40.54,3.18
40.94,3.17
41.35,3.15
41.76,3.14
42.18,3.12
42.6,3.11
43.03,3.09
43.46,3.08
43.9,3.07
44.33,3.05
44.78,3.04
45.23,3.02
45.68,3.01
46.13,3
46.6,2.99
47.06,2.99
47.53,2.98
48.01,2.98
48.49,2.97
48.97,2.97
49.46,2.96
49.96,2.95
50.46,2.92
50.96,2.89
51.47,2.86
51.99,2.83
52.51,2.81
53.03,2.78
53.56,2.75
54.1,2.73
54.64,2.72
55.18,2.71
55.74,2.7
56.29,2.68
56.86,2.67
57.42,2.66
58,2.65
58.58,2.63
59.16,2.6
59.76,2.57
60.35,2.54
60.96,2.51
61.57,2.48
62.18,2.45
62.8,2.42
63.43,2.39
64.07,2.36
64.71,2.33
65.35,2.3
66.01,2.27
66.67,2.24
67.33,2.21
68.01,2.18
68.69,2.15
69.37,2.12
70.07,2.09
70.77,2.06
71.48,2.03
72.19,2
72.91,1.97
73.64,1.94
74.38,1.91
75.12,1.87
75.87,1.84
76.63,1.8
77.4,1.76
78.17,1.73
78.95,1.69
79.74,1.65
80.54,1.61
81.35,1.57
82.16,1.53
82.98,1.49
83.81,1.45
84.65,1.41
85.5,1.36
86.35,1.32
87.22,1.28
88.09,1.23
88.97,1.19
89.86,1.14
90.76,1.1
91.66,1.06
92.58,1.01
93.51,0.97
94.44,0.93
95.39,0.9
96.34,0.86
97.3,0.82
98.28,0.79
99.26,0.75
100.25,0.71
101.25,0.66
102.27,0.61
103.29,0.56
104.32,0.5
105.37,0.45
106.42,0.4
107.48,0.34
108.56,0.29
109.64,0.24
110.74,0.2
111.85,0.15
112.97,0.1
114.1,0.06
115.24,0.01
116.39,-0.03
117.55,-0.08
118.73,-0.12
119.92,-0.16
121.12,-0.21
122.33,-0.25
123.55,-0.29
124.79,-0.34
126.03,-0.38
127.29,-0.42
128.57,-0.46
129.85,-0.49
131.15,-0.53
132.46,-0.57
133.79,-0.61
135.12,-0.65
136.48,-0.68
137.84,-0.72
139.22,-0.76
140.61,-0.79
142.02,-0.83
143.44,-0.87
144.87,-0.9
146.32,-0.94
147.78,-0.98
149.26,-1.01
150.75,-1.03
152.26,-1.06
153.78,-1.08
155.32,-1.11
156.88,-1.13
158.44,-1.16
160.03,-1.18
161.63,-1.21
163.24,-1.23
164.88,-1.25
166.53,-1.27
168.19,-1.29
169.87,-1.31
171.57,-1.34
173.29,-1.36
175.02,-1.37
176.77,-1.39
178.54,-1.41
180.32,-1.42
182.13,-1.44
183.95,-1.45
185.79,-1.47
187.65,-1.49
189.52,-1.5
191.42,-1.5
193.33,-1.5
195.27,-1.51
197.22,-1.51
199.19,-1.51
201.18,-1.51
203.19,-1.52
205.23,-1.52
207.28,-1.55
209.35,-1.57
211.44,-1.59
213.56,-1.61
215.69,-1.63
217.85,-1.65
220.03,-1.67
222.23,-1.69
224.45,-1.69
226.7,-1.7
228.96,-1.7
231.25,-1.7
233.57,-1.71
235.9,-1.71
238.26,-1.71
240.64,-1.72
243.05,-1.72
245.48,-1.73
247.93,-1.73
250.41,-1.74
252.92,-1.74
255.45,-1.75
258,-1.75
260.58,-1.76
263.19,-1.76
265.82,-1.77
268.48,-1.77
271.16,-1.78
273.87,-1.78
276.61,-1.79
279.38,-1.79
282.17,-1.8
284.99,-1.79
287.84,-1.78
290.72,-1.77
293.63,-1.76
296.57,-1.75
299.53,-1.74
302.53,-1.73
305.55,-1.72
308.61,-1.72
311.69,-1.72
314.81,-1.72
317.96,-1.72
321.14,-1.72
324.35,-1.72
327.59,-1.72
330.87,-1.72
334.18,-1.72
337.52,-1.71
340.9,-1.71
344.3,-1.71
347.75,-1.71
351.23,-1.71
354.74,-1.71
358.28,-1.71
361.87,-1.7
365.49,-1.69
369.14,-1.69
372.83,-1.68
376.56,-1.67
380.33,-1.67
384.13,-1.66
387.97,-1.65
391.85,-1.65
395.77,-1.63
399.73,-1.62
403.72,-1.6
407.76,-1.59
411.84,-1.57
415.96,-1.56
420.12,-1.54
424.32,-1.53
428.56,-1.52
432.85,-1.51
437.18,-1.49
441.55,-1.48
445.96,-1.47
450.42,-1.46
454.93,-1.44
459.48,-1.43
464.07,-1.42
468.71,-1.41
473.4,-1.39
478.13,-1.38
482.91,-1.37
487.74,-1.35
492.62,-1.34
497.55,-1.33
502.52,-1.3
507.55,-1.28
512.62,-1.26
517.75,-1.24
522.93,-1.22
528.16,-1.2
533.44,-1.18
538.77,-1.16
544.16,-1.14
549.6,-1.13
555.1,-1.11
560.65,-1.09
566.25,-1.07
571.92,-1.06
577.64,-1.04
583.41,-1.02
589.25,-1.01
595.14,-0.99
601.09,-0.98
607.1,-0.96
613.17,-0.95
619.3,-0.93
625.5,-0.91
631.75,-0.89
638.07,-0.86
644.45,-0.83
650.89,-0.8
657.4,-0.78
663.98,-0.76
670.62,-0.74
677.32,-0.72
684.1,-0.7
690.94,-0.68
697.85,-0.67
704.83,-0.66
711.87,-0.64
718.99,-0.63
726.18,-0.61
733.44,-0.6
740.78,-0.59
748.19,-0.57
755.67,-0.56
763.23,-0.54
770.86,-0.53
778.57,-0.52
786.35,-0.5
794.22,-0.49
802.16,-0.47
810.18,-0.46
818.28,-0.44
826.46,-0.42
834.73,-0.41
843.08,-0.39
851.51,-0.37
860.02,-0.36
868.62,-0.34
877.31,-0.32
886.08,-0.3
894.94,-0.28
903.89,-0.26
912.93,-0.25
922.06,-0.23
931.28,-0.21
940.59,-0.19
950,-0.16
959.5,-0.13
969.09,-0.1
978.78,-0.07
988.57,-0.04
998.46,0
1008.44,0.03
1018.53,0.06
1028.71,0.1
1039,0.15
1049.39,0.19
1059.88,0.23
1070.48,0.27
1081.19,0.32
1092,0.36
1102.92,0.41
1113.95,0.46
1125.09,0.51
1136.34,0.56
1147.7,0.62
1159.18,0.67
1170.77,0.72
1182.48,0.77
1194.3,0.83
1206.25,0.88
1218.31,0.94
1230.49,0.99
1242.8,1.05
1255.22,1.11
1267.78,1.16
1280.45,1.22
1293.26,1.28
1306.19,1.35
1319.25,1.41
1332.45,1.47
1345.77,1.54
1359.23,1.6
1372.82,1.67
1386.55,1.74
1400.41,1.81
1414.42,1.88
1428.56,1.96
1442.85,2.03
1457.28,2.1
1471.85,2.17
1486.57,2.24
1501.43,2.32
1516.45,2.39
1531.61,2.47
1546.93,2.54
1562.4,2.62
1578.02,2.69
1593.8,2.77
1609.74,2.86
1625.84,2.95
1642.1,3.05
1658.52,3.14
1675.1,3.23
1691.85,3.32
1708.77,3.42
1725.86,3.53
1743.12,3.63
1760.55,3.74
1778.15,3.84
1795.94,3.95
1813.9,4.05
1832.03,4.15
1850.36,4.25
1868.86,4.35
1887.55,4.44
1906.42,4.54
1925.49,4.64
1944.74,4.74
1964.19,4.9
1983.83,5.11
2003.67,5.31
2023.71,5.52
2043.94,5.73
2064.38,5.88
2085.03,6.03
2105.88,6.18
2126.94,6.33
2148.2,6.48
2169.69,6.63
2191.38,6.79
2213.3,6.94
2235.43,7.1
2257.78,7.26
2280.36,7.41
2303.17,7.55
2326.2,7.69
2349.46,7.83
2372.95,7.96
2396.68,8.1
2420.65,8.24
2444.86,8.35
2469.31,8.47
2494,8.58
2518.94,8.7
2544.13,8.81
2569.57,8.92
2595.27,9.02
2621.22,9.1
2647.43,9.18
2673.9,9.26
2700.64,9.34
2727.65,9.41
2754.93,9.49
2782.48,9.55
2810.3,9.58
2838.4,9.61
2866.79,9.63
2895.46,9.66
2924.41,9.69
2953.65,9.72
2983.19,9.75
3013.02,9.74
3043.15,9.71
3073.58,9.67
3104.32,9.63
3135.36,9.6
3166.72,9.56
3198.38,9.52
3230.37,9.49
3262.67,9.41
3295.3,9.32
3328.25,9.23
3361.53,9.15
3395.15,9.06
3429.1,8.98
3463.39,8.89
3498.03,8.78
3533.01,8.67
3568.34,8.57
3604.02,8.46
3640.06,8.35
3676.46,8.24
3713.22,8.13
3750.36,8.01
3787.86,7.88
3825.74,7.76
3864,7.63
3902.64,7.51
3941.66,7.39
3981.08,7.26
4020.89,7.14
4061.1,7.01
4101.71,6.89
4142.73,6.77
4184.15,6.64
4226,6.53
4268.26,6.41
4310.94,6.3
4354.05,6.18
4397.59,6.06
4441.56,5.95
4485.98,5.84
4530.84,5.74
4576.15,5.63
4621.91,5.53
4668.13,5.42
4714.81,5.32
4761.96,5.22
4809.58,5.14
4857.67,5.06
4906.25,4.99
4955.31,4.91
5004.87,4.83
5054.91,4.76
5105.46,4.68
5156.52,4.61
5208.08,4.54
5260.16,4.48
5312.77,4.41
5365.89,4.34
5419.55,4.27
5473.75,4.21
5528.49,4.15
5583.77,4.11
5639.61,4.07
5696,4.02
5752.96,3.98
5810.49,3.93
5868.6,3.89
5927.28,3.85
5986.56,3.82
6046.42,3.81
6106.89,3.79
6167.96,3.77
6229.64,3.76
6291.93,3.74
6354.85,3.72
6418.4,3.71
6482.58,3.7
6547.41,3.7
6612.88,3.69
6679.01,3.69
6745.8,3.69
6813.26,3.68
6881.39,3.68
6950.21,3.67
7019.71,3.67
7089.91,3.67
7160.81,3.67
7232.41,3.67
7304.74,3.67
7377.79,3.67
7451.56,3.67
7526.08,3.67
7601.34,3.65
7677.35,3.6
7754.13,3.55
7831.67,3.51
7909.98,3.46
7989.08,3.41
8068.98,3.37
8149.67,3.32
8231.16,3.21
8313.47,3.09
8396.61,2.98
8480.57,2.86
8565.38,2.74
8651.03,2.63
8737.54,2.49
8824.92,2.35
8913.17,2.21
9002.3,2.06
9092.32,1.92
9183.25,1.77
9275.08,1.63
9367.83,1.49
9461.51,1.35
9556.12,1.21
9651.68,1.07
9748.2,0.93
9845.68,0.76
9944.14,0.58
10043.58,0.41
10144.02,0.24
10245.46,0.07
10347.91,-0.09
10451.39,-0.25
10555.91,-0.4
10661.46,-0.55
10768.08,-0.71
10875.76,-0.86
10984.52,-1.02
11094.36,-1.18
11205.31,-1.33
11317.36,-1.49
11430.53,-1.65
11544.84,-1.8
11660.29,-1.93
11776.89,-2.07
11894.66,-2.2
12013.6,-2.34
12133.74,-2.47
12255.08,-2.6
12377.63,-2.71
12501.41,-2.82
12626.42,-2.93
12752.68,-3.05
12880.21,-3.16
13009.01,-3.27
13139.1,-3.37
13270.49,-3.47
13403.2,-3.56
13537.23,-3.66
13672.6,-3.76
13809.33,-3.86
13947.42,-3.96
14086.9,-4.05
14227.77,-4.15
14370.04,-4.24
14513.74,-4.34
14658.88,-4.44
14805.47,-4.53
14953.52,-4.64
15103.06,-4.75
15254.09,-4.85
15406.63,-4.96
15560.7,-5.07
15716.3,-5.18
15873.47,-5.3
16032.2,-5.42
16192.52,-5.55
16354.45,-5.68
16517.99,-5.81
16683.17,-5.94
16850.01,-6.06
17018.51,-6.2
17188.69,-6.33
17360.58,-6.47
17534.18,-6.6
17709.53,-6.74
17886.62,-6.87
18065.49,-7.03
18246.14,-7.18
18428.6,-7.34
18612.89,-7.49
18799.02,-7.65
18987.01,-7.83
19176.88,-8.02
19368.65,-8.21
19562.33,-8.4
19757.96,-8.59
19955.54,-8.77
