frequency,raw,error,smoothed,error_smoothed,equalization,fixed_band_eq,equalized_raw,equalized_smoothed,target
20.00,-10.53,-10.48,-10.53,-10.48,6.00,0.13,-4.53,-4.53,-0.05
20.20,-10.44,-10.39,-10.44,-10.39,6.00,0.13,-4.44,-4.44,-0.05
20.40,-10.36,-10.31,-10.36,-10.31,6.00,0.13,-4.36,-4.36,-0.05
20.61,-10.27,-10.22,-10.27,-10.22,6.00,0.14,-4.27,-4.27,-0.05
20.81,-10.19,-10.14,-10.19,-10.14,6.00,0.14,-4.19,-4.19,-0.05
21.02,-10.11,-10.06,-10.11,-10.06,6.00,0.14,-4.11,-4.11,-0.05
21.23,-10.03,-9.98,-10.03,-9.98,6.00,0.15,-4.03,-4.03,-0.05
21.44,-9.95,-9.90,-9.95,-9.90,6.00,0.15,-3.95,-3.95,-0.05
21.66,-9.88,-9.83,-9.88,-9.83,6.00,0.15,-3.88,-3.88,-0.05
21.87,-9.80,-9.75,-9.80,-9.75,6.00,0.16,-3.80,-3.80,-0.05
22.09,-9.73,-9.68,-9.73,-9.68,6.00,0.16,-3.73,-3.73,-0.05
22.31,-9.66,-9.61,-9.66,-9.61,6.00,0.17,-3.66,-3.66,-0.05
22.54,-9.59,-9.54,-9.59,-9.54,6.00,0.17,-3.59,-3.59,-0.05
22.76,-9.52,-9.47,-9.52,-9.47,6.00,0.17,-3.52,-3.52,-0.05
22.99,-9.46,-9.41,-9.46,-9.41,6.00,0.18,-3.46,-3.46,-0.05
23.22,-9.39,-9.34,-9.39,-9.34,6.00,0.18,-3.39,-3.39,-0.05
23.45,-9.33,-9.28,-9.33,-9.28,6.00,0.19,-3.33,-3.33,-0.05
23.69,-9.27,-9.22,-9.27,-9.22,6.00,0.19,-3.27,-3.27,-0.05
23.92,-9.21,-9.16,-9.21,-9.16,6.00,0.20,-3.21,-3.21,-0.05
24.16,-9.15,-9.10,-9.15,-9.10,6.00,0.20,-3.15,-3.15,-0.05
24.40,-9.10,-9.05,-9.10,-9.05,6.00,0.21,-3.10,-3.10,-0.05
24.65,-9.04,-8.99,-9.04,-8.99,6.00,0.21,-3.04,-3.04,-0.05
24.89,-8.99,-8.94,-8.99,-8.94,6.00,0.22,-2.99,-2.99,-0.05
25.14,-8.93,-8.88,-8.93,-8.88,6.00,0.22,-2.93,-2.93,-0.05
25.39,-8.88,-8.83,-8.88,-8.83,6.00,0.23,-2.88,-2.88,-0.05
25.65,-8.82,-8.77,-8.82,-8.77,6.00,0.23,-2.82,-2.82,-0.05
25.91,-8.76,-8.71,-8.76,-8.71,6.00,0.24,-2.76,-2.76,-0.05
26.16,-8.70,-8.65,-8.70,-8.65,6.00,0.24,-2.70,-2.70,-0.05
26.43,-8.65,-8.60,-8.65,-8.60,6.00,0.25,-2.65,-2.65,-0.05
26.69,-8.59,-8.54,-8.59,-8.54,6.00,0.26,-2.59,-2.59,-0.05
26.96,-8.53,-8.48,-8.53,-8.48,6.00,0.26,-2.53,-2.53,-0.05
27.23,-8.47,-8.42,-8.47,-8.43,6.00,0.27,-2.47,-2.47,-0.05
27.50,-8.42,-8.37,-8.42,-8.37,6.00,0.28,-2.42,-2.42,-0.05
27.77,-8.36,-8.31,-8.36,-8.31,6.00,0.28,-2.36,-2.36,-0.05
28.05,-8.29,-8.24,-8.29,-8.24,6.00,0.29,-2.29,-2.29,-0.05
28.33,-8.22,-8.17,-8.22,-8.17,6.00,0.30,-2.22,-2.22,-0.05
28.62,-8.15,-8.10,-8.15,-8.10,6.00,0.31,-2.15,-2.15,-0.05
28.90,-8.08,-8.03,-8.08,-8.03,6.00,0.31,-2.08,-2.08,-0.05
29.19,-8.00,-7.95,-8.00,-7.95,6.00,0.32,-2.00,-2.00,-0.05
29.48,-7.92,-7.87,-7.92,-7.87,6.00,0.33,-1.92,-1.92,-0.05
29.78,-7.83,-7.78,-7.83,-7.78,6.00,0.34,-1.83,-1.83,-0.05
30.08,-7.74,-7.69,-7.74,-7.69,6.00,0.35,-1.74,-1.74,-0.05
30.38,-7.65,-7.60,-7.65,-7.60,6.00,0.36,-1.65,-1.65,-0.05
30.68,-7.55,-7.50,-7.55,-7.50,6.00,0.37,-1.55,-1.55,-0.05
30.99,-7.44,-7.39,-7.44,-7.39,6.00,0.38,-1.44,-1.44,-0.05
31.30,-7.33,-7.28,-7.33,-7.28,6.00,0.39,-1.33,-1.33,-0.05
31.61,-7.22,-7.17,-7.22,-7.17,6.00,0.40,-1.22,-1.22,-0.05
31.93,-7.10,-7.05,-7.10,-7.05,6.00,0.41,-1.10,-1.10,-0.05
32.24,-6.98,-6.93,-6.98,-6.93,6.00,0.42,-0.98,-0.98,-0.05
32.57,-6.85,-6.80,-6.85,-6.80,6.00,0.43,-0.85,-0.85,-0.05
32.89,-6.73,-6.68,-6.73,-6.68,6.01,0.44,-0.71,-0.71,-0.05
33.22,-6.61,-6.56,-6.61,-6.56,6.02,0.46,-0.58,-0.58,-0.05
33.55,-6.49,-6.44,-6.49,-6.44,6.03,0.47,-0.46,-0.46,-0.05
33.89,-6.38,-6.33,-6.38,-6.33,6.02,0.48,-0.36,-0.36,-0.05
34.23,-6.26,-6.21,-6.26,-6.21,5.99,0.50,-0.27,-0.27,-0.05
34.57,-6.14,-6.09,-6.14,-6.09,5.94,0.51,-0.20,-0.20,-0.05
34.92,-6.01,-5.96,-6.01,-5.96,5.87,0.52,-0.14,-0.14,-0.05
35.27,-5.87,-5.82,-5.87,-5.82,5.78,0.54,-0.09,-0.09,-0.05
35.62,-5.72,-5.67,-5.72,-5.67,5.67,0.55,-0.05,-0.04,-0.05
35.97,-5.56,-5.51,-5.56,-5.52,5.55,0.57,-0.01,-0.02,-0.05
36.33,-5.42,-5.37,-5.42,-5.37,5.41,0.59,-0.01,-0.01,-0.05
36.70,-5.28,-5.23,-5.28,-5.23,5.27,0.60,-0.01,-0.02,-0.05
37.06,-5.16,-5.11,-5.16,-5.11,5.12,0.62,-0.04,-0.04,-0.05
37.43,-5.04,-4.99,-5.04,-4.99,4.98,0.64,-0.06,-0.05,-0.05
37.81,-4.92,-4.87,-4.92,-4.87,4.85,0.66,-0.06,-0.06,-0.05
38.19,-4.79,-4.74,-4.79,-4.74,4.73,0.68,-0.06,-0.06,-0.05
38.57,-4.66,-4.61,-4.66,-4.61,4.61,0.70,-0.05,-0.05,-0.05
38.95,-4.54,-4.49,-4.54,-4.49,4.49,0.72,-0.04,-0.04,-0.05
39.34,-4.42,-4.37,-4.42,-4.37,4.38,0.74,-0.04,-0.04,-0.05
39.74,-4.31,-4.26,-4.31,-4.26,4.27,0.76,-0.04,-0.04,-0.05
40.14,-4.20,-4.15,-4.20,-4.15,4.16,0.78,-0.04,-0.04,-0.05
40.54,-4.10,-4.05,-4.10,-4.05,4.05,0.81,-0.05,-0.05,-0.05
40.94,-4.01,-3.96,-4.00,-3.96,3.96,0.83,-0.05,-0.05,-0.05
41.35,-3.91,-3.86,-3.91,-3.86,3.86,0.86,-0.05,-0.05,-0.05
41.76,-3.82,-3.77,-3.82,-3.77,3.77,0.88,-0.05,-0.05,-0.05
42.18,-3.73,-3.68,-3.73,-3.68,3.68,0.91,-0.05,-0.05,-0.05
42.60,-3.64,-3.59,-3.64,-3.59,3.59,0.94,-0.05,-0.05,-0.05
43.03,-3.55,-3.50,-3.55,-3.50,3.50,0.96,-0.05,-0.05,-0.05
43.46,-3.46,-3.41,-3.46,-3.41,3.41,0.99,-0.05,-0.05,-0.05
43.90,-3.37,-3.32,-3.37,-3.32,3.32,1.02,-0.05,-0.05,-0.05
44.33,-3.28,-3.23,-3.28,-3.23,3.24,1.05,-0.04,-0.05,-0.05
44.78,-3.20,-3.15,-3.20,-3.15,3.15,1.09,-0.05,-0.05,-0.05
45.23,-3.11,-3.06,-3.11,-3.06,3.06,1.12,-0.05,-0.05,-0.05
45.68,-3.02,-2.97,-3.02,-2.98,2.97,1.15,-0.05,-0.05,-0.05
46.13,-2.94,-2.89,-2.94,-2.89,2.89,1.18,-0.05,-0.05,-0.05
46.60,-2.85,-2.80,-2.85,-2.80,2.80,1.22,-0.05,-0.05,-0.05
47.06,-2.76,-2.71,-2.76,-2.71,2.71,1.25,-0.05,-0.05,-0.05
47.53,-2.67,-2.62,-2.67,-2.62,2.62,1.29,-0.04,-0.04,-0.05
48.01,-2.58,-2.53,-2.58,-2.53,2.54,1.33,-0.04,-0.05,-0.05
48.49,-2.50,-2.45,-2.50,-2.45,2.45,1.36,-0.05,-0.05,-0.05
48.97,-2.42,-2.37,-2.41,-2.37,2.36,1.40,-0.05,-0.05,-0.05
49.46,-2.33,-2.28,-2.33,-2.28,2.28,1.44,-0.05,-0.05,-0.05
49.96,-2.24,-2.19,-2.24,-2.19,2.19,1.48,-0.05,-0.05,-0.05
50.46,-2.16,-2.11,-2.16,-2.11,2.11,1.52,-0.05,-0.05,-0.05
50.96,-2.07,-2.02,-2.07,-2.02,2.02,1.56,-0.04,-0.05,-0.05
51.47,-1.99,-1.94,-1.99,-1.94,1.94,1.60,-0.05,-0.05,-0.05
51.99,-1.91,-1.86,-1.91,-1.86,1.86,1.64,-0.05,-0.05,-0.05
52.51,-1.82,-1.77,-1.82,-1.77,1.77,1.68,-0.05,-0.05,-0.05
53.03,-1.74,-1.69,-1.74,-1.69,1.69,1.71,-0.05,-0.05,-0.05
53.56,-1.66,-1.61,-1.66,-1.61,1.61,1.75,-0.05,-0.05,-0.05
54.10,-1.58,-1.53,-1.58,-1.53,1.53,1.79,-0.05,-0.05,-0.05
54.64,-1.50,-1.45,-1.50,-1.45,1.45,1.83,-0.05,-0.05,-0.05
55.18,-1.43,-1.38,-1.43,-1.38,1.38,1.86,-0.05,-0.05,-0.05
55.74,-1.35,-1.30,-1.35,-1.30,1.30,1.90,-0.05,-0.05,-0.05
56.29,-1.28,-1.23,-1.28,-1.23,1.23,1.93,-0.05,-0.05,-0.05
56.86,-1.21,-1.16,-1.21,-1.16,1.16,1.96,-0.05,-0.05,-0.05
57.42,-1.15,-1.10,-1.15,-1.10,1.10,1.99,-0.05,-0.05,-0.05
58.00,-1.08,-1.03,-1.08,-1.03,1.03,2.02,-0.05,-0.05,-0.05
58.58,-1.02,-0.97,-1.02,-0.97,0.97,2.04,-0.05,-0.05,-0.05
59.16,-0.95,-0.90,-0.95,-0.90,0.90,2.06,-0.05,-0.05,-0.05
59.76,-0.89,-0.84,-0.89,-0.84,0.84,2.08,-0.05,-0.05,-0.05
60.35,-0.83,-0.78,-0.83,-0.78,0.78,2.10,-0.04,-0.04,-0.05
60.96,-0.77,-0.72,-0.77,-0.72,0.73,2.11,-0.04,-0.05,-0.05
61.57,-0.72,-0.67,-0.72,-0.67,0.67,2.12,-0.05,-0.05,-0.05
62.18,-0.67,-0.62,-0.67,-0.62,0.62,2.13,-0.05,-0.05,-0.05
62.80,-0.61,-0.56,-0.61,-0.56,0.56,2.13,-0.05,-0.05,-0.05
63.43,-0.56,-0.51,-0.56,-0.51,0.51,2.13,-0.05,-0.05,-0.05
64.07,-0.50,-0.45,-0.50,-0.45,0.45,2.13,-0.05,-0.05,-0.05
64.71,-0.45,-0.40,-0.45,-0.40,0.40,2.13,-0.05,-0.05,-0.05
65.35,-0.39,-0.34,-0.39,-0.34,0.34,2.12,-0.05,-0.05,-0.05
66.01,-0.33,-0.28,-0.33,-0.28,0.29,2.11,-0.04,-0.05,-0.05
66.67,-0.28,-0.23,-0.28,-0.23,0.23,2.09,-0.05,-0.05,-0.05
67.33,-0.22,-0.17,-0.22,-0.17,0.17,2.07,-0.05,-0.05,-0.05
68.01,-0.17,-0.12,-0.17,-0.12,0.11,2.05,-0.05,-0.05,-0.05
68.69,-0.11,-0.06,-0.11,-0.06,0.06,2.03,-0.05,-0.05,-0.05
69.37,-0.05,-0.00,-0.05,-0.00,-0.00,2.01,-0.05,-0.05,-0.05
70.07,0.01,0.06,0.01,0.06,-0.06,1.98,-0.05,-0.05,-0.05
70.77,0.07,0.12,0.07,0.12,-0.12,1.95,-0.04,-0.05,-0.05
71.48,0.12,0.17,0.12,0.17,-0.17,1.92,-0.05,-0.05,-0.05
72.19,0.18,0.23,0.18,0.23,-0.23,1.89,-0.04,-0.05,-0.05
72.91,0.23,0.28,0.23,0.28,-0.28,1.86,-0.05,-0.05,-0.05
73.64,0.28,0.33,0.28,0.33,-0.33,1.82,-0.05,-0.05,-0.05
74.38,0.33,0.38,0.33,0.38,-0.38,1.79,-0.05,-0.05,-0.05
75.12,0.37,0.42,0.37,0.42,-0.42,1.75,-0.05,-0.05,-0.05
75.87,0.42,0.47,0.42,0.47,-0.47,1.72,-0.05,-0.05,-0.05
76.63,0.46,0.51,0.46,0.51,-0.51,1.68,-0.05,-0.05,-0.05
77.40,0.50,0.55,0.50,0.55,-0.55,1.64,-0.05,-0.05,-0.05
78.17,0.54,0.59,0.54,0.59,-0.59,1.61,-0.05,-0.05,-0.05
78.95,0.58,0.63,0.58,0.63,-0.63,1.57,-0.05,-0.05,-0.05
79.74,0.62,0.67,0.62,0.67,-0.67,1.54,-0.04,-0.05,-0.05
80.54,0.65,0.70,0.65,0.70,-0.70,1.50,-0.04,-0.04,-0.05
81.35,0.68,0.73,0.68,0.73,-0.72,1.47,-0.04,-0.04,-0.05
82.16,0.70,0.75,0.70,0.75,-0.74,1.43,-0.04,-0.05,-0.05
82.98,0.71,0.76,0.71,0.76,-0.76,1.40,-0.05,-0.05,-0.05
83.81,0.72,0.77,0.72,0.77,-0.78,1.37,-0.05,-0.05,-0.05
84.65,0.73,0.78,0.73,0.78,-0.78,1.33,-0.05,-0.05,-0.05
85.50,0.74,0.79,0.74,0.79,-0.79,1.30,-0.05,-0.05,-0.05
86.35,0.74,0.79,0.74,0.79,-0.79,1.27,-0.05,-0.05,-0.05
87.22,0.74,0.79,0.74,0.79,-0.79,1.24,-0.05,-0.05,-0.05
88.09,0.73,0.78,0.73,0.78,-0.78,1.21,-0.05,-0.05,-0.05
88.97,0.72,0.77,0.72,0.77,-0.77,1.19,-0.05,-0.05,-0.05
89.86,0.70,0.75,0.70,0.75,-0.75,1.16,-0.05,-0.05,-0.05
90.76,0.68,0.73,0.68,0.73,-0.73,1.13,-0.05,-0.05,-0.05
91.66,0.65,0.70,0.65,0.70,-0.70,1.11,-0.05,-0.05,-0.05
92.58,0.62,0.67,0.62,0.67,-0.67,1.08,-0.05,-0.05,-0.05
93.51,0.58,0.63,0.58,0.63,-0.63,1.06,-0.05,-0.05,-0.05
94.44,0.54,0.59,0.54,0.59,-0.59,1.04,-0.05,-0.05,-0.05
95.39,0.50,0.55,0.50,0.55,-0.54,1.02,-0.04,-0.05,-0.05
96.34,0.45,0.50,0.45,0.50,-0.50,1.00,-0.05,-0.05,-0.05
97.30,0.40,0.45,0.40,0.45,-0.45,0.98,-0.05,-0.05,-0.05
98.28,0.35,0.40,0.35,0.40,-0.40,0.96,-0.05,-0.05,-0.05
99.26,0.30,0.35,0.30,0.35,-0.35,0.94,-0.05,-0.05,-0.05
100.25,0.26,0.31,0.26,0.31,-0.31,0.92,-0.05,-0.05,-0.05
101.25,0.21,0.26,0.21,0.26,-0.26,0.91,-0.05,-0.05,-0.05
102.27,0.17,0.22,0.17,0.22,-0.22,0.89,-0.05,-0.05,-0.05
103.29,0.13,0.18,0.13,0.18,-0.18,0.88,-0.05,-0.05,-0.05
104.32,0.10,0.15,0.10,0.15,-0.15,0.86,-0.04,-0.05,-0.05
105.37,0.06,0.11,0.06,0.11,-0.11,0.85,-0.05,-0.05,-0.05
106.42,0.03,0.08,0.03,0.08,-0.08,0.84,-0.05,-0.05,-0.05
107.48,0.00,0.05,-0.00,0.05,-0.05,0.83,-0.05,-0.05,-0.05
108.56,-0.03,0.02,-0.03,0.02,-0.03,0.82,-0.05,-0.05,-0.05
109.64,-0.05,-0.00,-0.05,-0.00,0.00,0.81,-0.05,-0.05,-0.05
110.74,-0.07,-0.02,-0.07,-0.02,0.03,0.80,-0.04,-0.05,-0.05
111.85,-0.10,-0.05,-0.10,-0.05,0.05,0.79,-0.05,-0.05,-0.05
112.97,-0.13,-0.08,-0.13,-0.08,0.08,0.78,-0.05,-0.05,-0.05
114.10,-0.16,-0.11,-0.16,-0.11,0.11,0.77,-0.05,-0.05,-0.05
115.24,-0.19,-0.14,-0.19,-0.14,0.14,0.77,-0.05,-0.05,-0.05
116.39,-0.23,-0.18,-0.22,-0.18,0.18,0.76,-0.05,-0.05,-0.05
117.55,-0.26,-0.21,-0.26,-0.21,0.22,0.76,-0.04,-0.05,-0.05
118.73,-0.31,-0.26,-0.31,-0.26,0.26,0.75,-0.05,-0.05,-0.05
119.92,-0.36,-0.31,-0.36,-0.31,0.31,0.75,-0.04,-0.04,-0.05
121.12,-0.42,-0.37,-0.42,-0.37,0.37,0.74,-0.05,-0.05,-0.05
122.33,-0.48,-0.43,-0.48,-0.43,0.43,0.74,-0.05,-0.05,-0.05
123.55,-0.55,-0.50,-0.55,-0.50,0.50,0.74,-0.05,-0.05,-0.05
124.79,-0.62,-0.57,-0.62,-0.57,0.57,0.74,-0.05,-0.05,-0.05
126.03,-0.70,-0.65,-0.70,-0.65,0.65,0.74,-0.05,-0.05,-0.05
127.29,-0.78,-0.73,-0.78,-0.73,0.73,0.74,-0.05,-0.05,-0.05
128.57,-0.87,-0.82,-0.87,-0.82,0.82,0.74,-0.05,-0.05,-0.05
129.85,-0.96,-0.91,-0.96,-0.91,0.91,0.74,-0.05,-0.05,-0.05
131.15,-1.05,-1.00,-1.05,-1.00,1.00,0.74,-0.05,-0.05,-0.05
132.46,-1.15,-1.10,-1.15,-1.10,1.10,0.74,-0.05,-0.05,-0.05
133.79,-1.25,-1.20,-1.25,-1.20,1.21,0.74,-0.04,-0.05,-0.05
135.12,-1.36,-1.31,-1.36,-1.31,1.31,0.75,-0.05,-0.05,-0.05
136.48,-1.47,-1.42,-1.47,-1.42,1.42,0.75,-0.05,-0.05,-0.05
137.84,-1.58,-1.53,-1.58,-1.53,1.53,0.76,-0.05,-0.05,-0.05
139.22,-1.70,-1.65,-1.70,-1.65,1.65,0.76,-0.05,-0.05,-0.05
140.61,-1.81,-1.76,-1.81,-1.76,1.76,0.77,-0.05,-0.05,-0.05
142.02,-1.92,-1.87,-1.92,-1.87,1.87,0.77,-0.05,-0.05,-0.05
143.44,-2.03,-1.98,-2.03,-1.98,1.98,0.78,-0.05,-0.05,-0.05
144.87,-2.14,-2.09,-2.14,-2.09,2.09,0.79,-0.05,-0.05,-0.05
146.32,-2.25,-2.20,-2.25,-2.20,2.20,0.80,-0.05,-0.05,-0.05
147.78,-2.35,-2.30,-2.35,-2.30,2.30,0.81,-0.05,-0.05,-0.05
149.26,-2.45,-2.40,-2.45,-2.40,2.40,0.82,-0.05,-0.05,-0.05
150.75,-2.54,-2.49,-2.54,-2.49,2.49,0.83,-0.05,-0.05,-0.05
152.26,-2.63,-2.58,-2.63,-2.58,2.57,0.84,-0.05,-0.05,-0.05
153.78,-2.70,-2.65,-2.70,-2.65,2.65,0.86,-0.05,-0.05,-0.05
155.32,-2.77,-2.72,-2.77,-2.72,2.72,0.87,-0.05,-0.05,-0.05
156.88,-2.83,-2.78,-2.83,-2.78,2.78,0.88,-0.05,-0.05,-0.05
158.44,-2.88,-2.83,-2.88,-2.83,2.83,0.90,-0.05,-0.05,-0.05
160.03,-2.92,-2.87,-2.92,-2.87,2.87,0.92,-0.05,-0.05,-0.05
161.63,-2.95,-2.90,-2.95,-2.90,2.90,0.93,-0.05,-0.05,-0.05
163.24,-2.97,-2.92,-2.97,-2.92,2.92,0.95,-0.05,-0.05,-0.05
164.88,-2.99,-2.94,-2.99,-2.94,2.94,0.97,-0.05,-0.05,-0.05
166.53,-2.99,-2.94,-2.99,-2.94,2.94,0.99,-0.05,-0.05,-0.05
168.19,-2.99,-2.94,-2.99,-2.94,2.94,1.01,-0.05,-0.05,-0.05
169.87,-2.98,-2.93,-2.98,-2.93,2.93,1.03,-0.05,-0.05,-0.05
171.57,-2.96,-2.91,-2.96,-2.91,2.91,1.06,-0.05,-0.05,-0.05
173.29,-2.94,-2.89,-2.94,-2.89,2.89,1.08,-0.05,-0.05,-0.05
175.02,-2.91,-2.86,-2.91,-2.86,2.86,1.10,-0.05,-0.05,-0.05
176.77,-2.88,-2.83,-2.88,-2.83,2.83,1.13,-0.05,-0.05,-0.05
178.54,-2.84,-2.79,-2.84,-2.79,2.79,1.16,-0.05,-0.05,-0.05
180.32,-2.79,-2.74,-2.79,-2.74,2.75,1.18,-0.04,-0.05,-0.05
182.13,-2.75,-2.70,-2.75,-2.70,2.70,1.21,-0.04,-0.04,-0.05
183.95,-2.70,-2.65,-2.70,-2.65,2.66,1.24,-0.04,-0.04,-0.05
185.79,-2.66,-2.61,-2.66,-2.61,2.61,1.27,-0.05,-0.05,-0.05
187.65,-2.62,-2.57,-2.62,-2.57,2.57,1.30,-0.05,-0.05,-0.05
189.52,-2.57,-2.52,-2.57,-2.52,2.52,1.33,-0.05,-0.05,-0.05
191.42,-2.52,-2.47,-2.52,-2.47,2.47,1.37,-0.05,-0.05,-0.05
193.33,-2.47,-2.42,-2.47,-2.42,2.42,1.40,-0.05,-0.05,-0.05
195.27,-2.41,-2.36,-2.41,-2.36,2.37,1.43,-0.04,-0.04,-0.05
197.22,-2.36,-2.31,-2.36,-2.31,2.32,1.46,-0.04,-0.04,-0.05
199.19,-2.31,-2.26,-2.31,-2.26,2.26,1.50,-0.04,-0.04,-0.05
201.18,-2.26,-2.21,-2.26,-2.21,2.21,1.53,-0.05,-0.05,-0.05
203.19,-2.21,-2.16,-2.21,-2.16,2.15,1.56,-0.06,-0.05,-0.05
205.23,-2.15,-2.10,-2.15,-2.10,2.10,1.60,-0.05,-0.05,-0.05
207.28,-2.09,-2.04,-2.09,-2.04,2.04,1.63,-0.05,-0.05,-0.05
209.35,-2.02,-1.97,-2.02,-1.97,1.97,1.66,-0.05,-0.05,-0.05
211.44,-1.96,-1.91,-1.96,-1.91,1.91,1.69,-0.05,-0.05,-0.05
213.56,-1.89,-1.84,-1.89,-1.84,1.84,1.72,-0.05,-0.05,-0.05
215.69,-1.82,-1.77,-1.82,-1.77,1.77,1.75,-0.05,-0.05,-0.05
217.85,-1.75,-1.70,-1.75,-1.70,1.70,1.78,-0.05,-0.05,-0.05
220.03,-1.68,-1.63,-1.68,-1.63,1.64,1.80,-0.04,-0.05,-0.05
222.23,-1.62,-1.57,-1.62,-1.57,1.57,1.82,-0.05,-0.05,-0.05
224.45,-1.56,-1.51,-1.56,-1.51,1.51,1.84,-0.05,-0.05,-0.05
226.70,-1.50,-1.45,-1.50,-1.45,1.45,1.86,-0.05,-0.05,-0.05
228.96,-1.45,-1.40,-1.45,-1.40,1.40,1.88,-0.05,-0.05,-0.05
231.25,-1.40,-1.35,-1.40,-1.35,1.35,1.89,-0.05,-0.05,-0.05
233.57,-1.36,-1.31,-1.36,-1.31,1.31,1.89,-0.05,-0.05,-0.05
235.90,-1.32,-1.27,-1.32,-1.27,1.27,1.90,-0.05,-0.05,-0.05
238.26,-1.29,-1.24,-1.29,-1.24,1.24,1.89,-0.05,-0.05,-0.05
240.64,-1.26,-1.21,-1.26,-1.21,1.21,1.89,-0.04,-0.05,-0.05
243.05,-1.24,-1.19,-1.24,-1.19,1.19,1.88,-0.05,-0.05,-0.05
245.48,-1.22,-1.17,-1.22,-1.17,1.17,1.86,-0.05,-0.05,-0.05
247.93,-1.20,-1.15,-1.20,-1.15,1.16,1.84,-0.04,-0.05,-0.05
250.41,-1.19,-1.14,-1.19,-1.14,1.14,1.82,-0.05,-0.05,-0.05
252.92,-1.17,-1.12,-1.17,-1.12,1.13,1.79,-0.04,-0.05,-0.05
255.45,-1.16,-1.11,-1.16,-1.11,1.11,1.75,-0.05,-0.05,-0.05
258.00,-1.14,-1.09,-1.14,-1.09,1.08,1.72,-0.05,-0.05,-0.05
260.58,-1.11,-1.06,-1.11,-1.06,1.06,1.67,-0.05,-0.06,-0.05
263.19,-1.08,-1.03,-1.08,-1.03,1.02,1.62,-0.06,-0.06,-0.05
265.82,-1.04,-0.99,-1.03,-0.99,0.98,1.57,-0.06,-0.06,-0.05
268.48,-0.98,-0.93,-0.98,-0.93,0.93,1.51,-0.05,-0.05,-0.05
271.16,-0.92,-0.87,-0.92,-0.87,0.87,1.45,-0.05,-0.05,-0.05
273.87,-0.85,-0.80,-0.85,-0.80,0.81,1.38,-0.04,-0.04,-0.05
276.61,-0.78,-0.73,-0.78,-0.73,0.74,1.31,-0.03,-0.04,-0.05
279.38,-0.72,-0.67,-0.72,-0.67,0.68,1.23,-0.04,-0.04,-0.05
282.17,-0.65,-0.60,-0.65,-0.60,0.60,1.16,-0.05,-0.05,-0.05
284.99,-0.58,-0.53,-0.58,-0.53,0.53,1.08,-0.05,-0.05,-0.05
287.84,-0.50,-0.45,-0.50,-0.45,0.45,0.99,-0.05,-0.05,-0.05
290.72,-0.42,-0.37,-0.42,-0.37,0.36,0.91,-0.06,-0.05,-0.05
293.63,-0.32,-0.27,-0.32,-0.28,0.27,0.82,-0.05,-0.05,-0.05
296.57,-0.23,-0.18,-0.23,-0.18,0.17,0.73,-0.06,-0.05,-0.05
299.53,-0.12,-0.07,-0.12,-0.07,0.07,0.63,-0.05,-0.05,-0.05
302.53,-0.01,0.04,-0.01,0.04,-0.04,0.54,-0.05,-0.05,-0.05
305.55,0.11,0.16,0.11,0.16,-0.16,0.44,-0.05,-0.05,-0.05
308.61,0.23,0.28,0.23,0.28,-0.27,0.34,-0.04,-0.04,-0.05
311.69,0.35,0.40,0.35,0.40,-0.39,0.24,-0.04,-0.04,-0.05
314.81,0.47,0.52,0.47,0.52,-0.51,0.14,-0.04,-0.04,-0.05
317.96,0.59,0.64,0.59,0.64,-0.64,0.04,-0.05,-0.05,-0.05
321.14,0.71,0.76,0.71,0.76,-0.76,-0.06,-0.05,-0.05,-0.05
324.35,0.83,0.88,0.83,0.88,-0.89,-0.17,-0.06,-0.06,-0.05
327.59,0.96,1.01,0.96,1.01,-1.02,-0.27,-0.06,-0.06,-0.05
330.87,1.10,1.15,1.10,1.15,-1.15,-0.38,-0.05,-0.05,-0.05
334.18,1.24,1.29,1.24,1.29,-1.29,-0.49,-0.05,-0.05,-0.05
337.52,1.38,1.43,1.38,1.43,-1.42,-0.59,-0.04,-0.04,-0.05
340.90,1.51,1.56,1.51,1.56,-1.56,-0.70,-0.05,-0.04,-0.05
344.30,1.64,1.69,1.64,1.69,-1.69,-0.81,-0.05,-0.05,-0.05
347.75,1.77,1.82,1.77,1.82,-1.82,-0.92,-0.05,-0.05,-0.05
351.23,1.89,1.94,1.89,1.94,-1.94,-1.04,-0.05,-0.05,-0.05
354.74,2.01,2.06,2.01,2.06,-2.06,-1.15,-0.05,-0.05,-0.05
358.28,2.12,2.17,2.12,2.17,-2.17,-1.26,-0.05,-0.05,-0.05
361.87,2.23,2.28,2.23,2.28,-2.28,-1.38,-0.04,-0.05,-0.05
365.49,2.33,2.38,2.33,2.38,-2.37,-1.49,-0.04,-0.04,-0.05
369.14,2.42,2.47,2.42,2.47,-2.46,-1.61,-0.04,-0.04,-0.05
372.83,2.50,2.55,2.50,2.55,-2.55,-1.73,-0.04,-0.04,-0.05
376.56,2.57,2.62,2.57,2.62,-2.62,-1.84,-0.05,-0.05,-0.05
380.33,2.64,2.69,2.64,2.69,-2.69,-1.96,-0.05,-0.05,-0.05
384.13,2.70,2.75,2.70,2.75,-2.75,-2.08,-0.05,-0.05,-0.05
387.97,2.76,2.81,2.76,2.81,-2.81,-2.20,-0.05,-0.05,-0.05
391.85,2.81,2.86,2.81,2.86,-2.87,-2.32,-0.05,-0.05,-0.05
395.77,2.87,2.92,2.87,2.91,-2.92,-2.44,-0.05,-0.05,-0.05
399.73,2.91,2.96,2.91,2.96,-2.97,-2.56,-0.06,-0.05,-0.05
403.72,2.96,3.01,2.96,3.01,-3.01,-2.67,-0.05,-0.05,-0.05
407.76,3.00,3.05,3.00,3.05,-3.05,-2.79,-0.05,-0.05,-0.05
411.84,3.04,3.09,3.04,3.09,-3.09,-2.91,-0.05,-0.04,-0.05
415.96,3.08,3.13,3.08,3.12,-3.12,-3.03,-0.04,-0.04,-0.05
420.12,3.10,3.15,3.10,3.15,-3.14,-3.14,-0.04,-0.04,-0.05
424.32,3.12,3.17,3.12,3.17,-3.16,-3.25,-0.04,-0.04,-0.05
428.56,3.13,3.18,3.13,3.18,-3.18,-3.36,-0.05,-0.05,-0.05
432.85,3.14,3.19,3.14,3.19,-3.19,-3.47,-0.05,-0.05,-0.05
437.18,3.15,3.20,3.15,3.20,-3.20,-3.57,-0.05,-0.05,-0.05
441.55,3.16,3.21,3.16,3.21,-3.21,-3.67,-0.05,-0.05,-0.05
445.96,3.17,3.22,3.17,3.22,-3.23,-3.77,-0.05,-0.05,-0.05
450.42,3.18,3.23,3.18,3.23,-3.24,-3.86,-0.06,-0.06,-0.05
454.93,3.20,3.25,3.20,3.25,-3.26,-3.94,-0.06,-0.06,-0.05
459.48,3.22,3.27,3.22,3.27,-3.27,-4.02,-0.05,-0.05,-0.05
464.07,3.24,3.29,3.24,3.29,-3.29,-4.10,-0.05,-0.05,-0.05
468.71,3.26,3.31,3.26,3.31,-3.31,-4.16,-0.04,-0.04,-0.05
473.40,3.28,3.33,3.28,3.33,-3.32,-4.22,-0.04,-0.04,-0.05
478.13,3.29,3.34,3.29,3.33,-3.32,-4.26,-0.03,-0.03,-0.05
482.91,3.29,3.33,3.29,3.33,-3.33,-4.30,-0.03,-0.03,-0.04
487.74,3.29,3.32,3.29,3.32,-3.32,-4.33,-0.03,-0.03,-0.03
492.62,3.29,3.31,3.29,3.31,-3.31,-4.36,-0.02,-0.03,-0.02
497.55,3.28,3.30,3.28,3.30,-3.30,-4.37,-0.02,-0.02,-0.02
502.52,3.27,3.28,3.27,3.28,-3.29,-4.37,-0.02,-0.01,-0.01
507.55,3.27,3.27,3.27,3.27,-3.27,-4.36,0.00,-0.00,0.00
512.62,3.25,3.25,3.25,3.25,-3.25,-4.35,0.00,0.01,0.00
517.75,3.24,3.23,3.24,3.23,-3.23,-4.32,0.01,0.01,0.01
522.93,3.22,3.21,3.22,3.21,-3.20,-4.28,0.02,0.02,0.01
528.16,3.20,3.18,3.20,3.18,-3.18,-4.24,0.02,0.02,0.02
533.44,3.18,3.15,3.18,3.15,-3.15,-4.19,0.03,0.03,0.03
538.77,3.16,3.13,3.16,3.13,-3.13,-4.13,0.03,0.03,0.03
544.16,3.14,3.10,3.14,3.10,-3.10,-4.06,0.04,0.04,0.04
549.60,3.12,3.07,3.12,3.07,-3.08,-3.98,0.05,0.04,0.05
555.10,3.10,3.05,3.10,3.05,-3.05,-3.90,0.05,0.05,0.05
560.65,3.09,3.03,3.09,3.03,-3.03,-3.82,0.06,0.06,0.06
566.25,3.08,3.01,3.08,3.01,-3.01,-3.73,0.07,0.07,0.07
571.92,3.07,2.99,3.07,2.99,-2.99,-3.63,0.08,0.08,0.08
577.64,3.06,2.97,3.06,2.97,-2.97,-3.53,0.09,0.09,0.09
583.41,3.05,2.96,3.05,2.96,-2.95,-3.43,0.10,0.10,0.09
589.25,3.04,2.94,3.04,2.94,-2.94,-3.32,0.10,0.11,0.10
595.14,3.04,2.93,3.04,2.92,-2.93,-3.21,0.11,0.11,0.11
601.09,3.03,2.91,3.03,2.91,-2.92,-3.11,0.11,0.11,0.12
607.10,3.03,2.90,3.03,2.91,-2.92,-2.99,0.11,0.12,0.13
613.17,3.04,2.91,3.04,2.91,-2.92,-2.88,0.12,0.12,0.13
