frequency,raw,error,smoothed,error_smoothed,equalization,fixed_band_eq,equalized_raw,equalized_smoothed,target
20.00,-9.80,-5.86,-9.80,-5.86,5.86,-0.26,-3.94,-3.94,-3.94
20.20,-9.74,-5.83,-9.74,-5.82,5.83,-0.27,-3.91,-3.91,-3.91
20.40,-9.67,-5.79,-9.67,-5.79,5.79,-0.27,-3.88,-3.88,-3.88
20.61,-9.61,-5.75,-9.61,-5.75,5.75,-0.28,-3.86,-3.86,-3.86
20.81,-9.54,-5.71,-9.54,-5.71,5.71,-0.29,-3.83,-3.83,-3.83
21.02,-9.47,-5.67,-9.47,-5.67,5.66,-0.29,-3.81,-3.81,-3.80
21.23,-9.41,-5.62,-9.40,-5.62,5.61,-0.30,-3.79,-3.79,-3.79
21.44,-9.34,-5.56,-9.34,-5.56,5.56,-0.31,-3.78,-3.78,-3.78
21.66,-9.27,-5.51,-9.27,-5.51,5.51,-0.31,-3.76,-3.76,-3.76
21.87,-9.21,-5.45,-9.21,-5.45,5.45,-0.32,-3.76,-3.76,-3.76
22.09,-9.14,-5.39,-9.14,-5.39,5.39,-0.33,-3.75,-3.75,-3.75
22.31,-9.08,-5.33,-9.08,-5.33,5.32,-0.34,-3.75,-3.75,-3.75
22.54,-9.01,-5.26,-9.01,-5.26,5.26,-0.34,-3.75,-3.75,-3.75
22.76,-8.95,-5.20,-8.95,-5.20,5.20,-0.35,-3.75,-3.75,-3.75
22.99,-8.88,-5.12,-8.88,-5.13,5.13,-0.36,-3.75,-3.75,-3.75
23.22,-8.82,-5.07,-8.82,-5.07,5.07,-0.37,-3.75,-3.75,-3.75
23.45,-8.76,-5.01,-8.76,-5.00,5.01,-0.38,-3.75,-3.75,-3.75
23.69,-8.69,-4.94,-8.69,-4.94,4.95,-0.39,-3.74,-3.75,-3.75
23.92,-8.63,-4.88,-8.63,-4.89,4.89,-0.39,-3.74,-3.74,-3.75
24.16,-8.57,-4.83,-8.57,-4.83,4.83,-0.40,-3.74,-3.74,-3.74
24.40,-8.51,-4.78,-8.51,-4.77,4.77,-0.41,-3.74,-3.74,-3.73
24.65,-8.45,-4.71,-8.45,-4.71,4.71,-0.42,-3.74,-3.74,-3.74
24.89,-8.39,-4.65,-8.39,-4.65,4.65,-0.43,-3.74,-3.74,-3.74
25.14,-8.32,-4.58,-8.32,-4.59,4.59,-0.44,-3.73,-3.73,-3.74
25.39,-8.26,-4.52,-8.26,-4.52,4.53,-0.45,-3.73,-3.73,-3.73
25.65,-8.20,-4.47,-8.20,-4.46,4.46,-0.46,-3.74,-3.73,-3.73
25.91,-8.13,-4.39,-8.13,-4.40,4.40,-0.48,-3.73,-3.74,-3.74
26.16,-8.07,-4.33,-8.07,-4.33,4.33,-0.49,-3.74,-3.74,-3.74
26.43,-8.00,-4.27,-8.00,-4.26,4.26,-0.50,-3.74,-3.73,-3.73
26.69,-7.92,-4.19,-7.92,-4.19,4.20,-0.51,-3.72,-3.73,-3.73
26.96,-7.85,-4.12,-7.85,-4.13,4.13,-0.52,-3.72,-3.72,-3.73
27.23,-7.78,-4.06,-7.78,-4.05,4.06,-0.54,-3.72,-3.72,-3.72
27.50,-7.71,-3.99,-7.71,-3.98,3.98,-0.55,-3.73,-3.73,-3.72
27.77,-7.63,-3.90,-7.63,-3.91,3.91,-0.56,-3.72,-3.73,-3.73
28.05,-7.56,-3.84,-7.56,-3.83,3.83,-0.57,-3.73,-3.73,-3.72
28.33,-7.48,-3.75,-7.48,-3.75,3.75,-0.59,-3.73,-3.73,-3.73
28.62,-7.39,-3.66,-7.39,-3.67,3.67,-0.60,-3.72,-3.73,-3.73
28.90,-7.31,-3.59,-7.31,-3.58,3.59,-0.62,-3.72,-3.72,-3.72
29.19,-7.22,-3.49,-7.22,-3.50,3.50,-0.63,-3.72,-3.72,-3.73
29.48,-7.13,-3.41,-7.13,-3.41,3.41,-0.65,-3.72,-3.72,-3.71
29.78,-7.04,-3.32,-7.04,-3.32,3.32,-0.66,-3.72,-3.72,-3.72
30.08,-6.95,-3.24,-6.95,-3.23,3.23,-0.68,-3.72,-3.72,-3.71
30.38,-6.85,-3.13,-6.85,-3.13,3.13,-0.70,-3.72,-3.72,-3.72
30.68,-6.75,-3.03,-6.75,-3.03,3.03,-0.71,-3.72,-3.72,-3.72
30.99,-6.65,-2.93,-6.65,-2.93,2.93,-0.73,-3.72,-3.72,-3.72
31.30,-6.54,-2.83,-6.54,-2.82,2.82,-0.75,-3.72,-3.72,-3.72
31.61,-6.42,-2.71,-6.43,-2.71,2.71,-0.77,-3.71,-3.71,-3.71
31.93,-6.31,-2.60,-6.31,-2.60,2.60,-0.79,-3.71,-3.71,-3.71
32.24,-6.20,-2.48,-6.20,-2.48,2.49,-0.81,-3.71,-3.71,-3.72
32.57,-6.08,-2.37,-6.08,-2.37,2.37,-0.83,-3.71,-3.71,-3.71
32.89,-5.97,-2.26,-5.97,-2.26,2.26,-0.85,-3.71,-3.71,-3.71
33.22,-5.85,-2.14,-5.85,-2.14,2.14,-0.87,-3.71,-3.71,-3.71
33.55,-5.73,-2.02,-5.73,-2.02,2.02,-0.89,-3.71,-3.71,-3.70
33.89,-5.61,-1.90,-5.61,-1.91,1.90,-0.91,-3.71,-3.71,-3.71
34.23,-5.49,-1.79,-5.49,-1.79,1.78,-0.93,-3.71,-3.70,-3.70
34.57,-5.37,-1.67,-5.37,-1.66,1.66,-0.96,-3.71,-3.71,-3.70
34.92,-5.24,-1.53,-5.24,-1.54,1.54,-0.98,-3.70,-3.71,-3.71
35.27,-5.12,-1.42,-5.12,-1.41,1.41,-1.01,-3.71,-3.70,-3.70
35.62,-4.99,-1.29,-4.99,-1.29,1.29,-1.03,-3.70,-3.70,-3.70
35.97,-4.86,-1.16,-4.86,-1.17,1.17,-1.06,-3.69,-3.70,-3.70
36.33,-4.74,-1.04,-4.74,-1.04,1.04,-1.08,-3.70,-3.70,-3.69
36.70,-4.62,-0.92,-4.61,-0.92,0.92,-1.11,-3.70,-3.69,-3.70
37.06,-4.49,-0.79,-4.49,-0.80,0.80,-1.14,-3.69,-3.69,-3.70
37.43,-4.37,-0.68,-4.37,-0.68,0.68,-1.17,-3.69,-3.69,-3.69
37.81,-4.25,-0.56,-4.25,-0.56,0.56,-1.19,-3.69,-3.69,-3.69
38.19,-4.13,-0.44,-4.13,-0.44,0.44,-1.22,-3.69,-3.69,-3.69
38.57,-4.01,-0.33,-4.01,-0.33,0.33,-1.25,-3.68,-3.68,-3.68
38.95,-3.89,-0.21,-3.89,-0.21,0.21,-1.28,-3.67,-3.68,-3.68
39.34,-3.78,-0.10,-3.78,-0.10,0.10,-1.32,-3.68,-3.68,-3.68
39.74,-3.67,0.01,-3.67,0.01,-0.01,-1.35,-3.68,-3.68,-3.68
40.14,-3.56,0.11,-3.56,0.11,-0.11,-1.38,-3.67,-3.67,-3.67
40.54,-3.45,0.22,-3.45,0.22,-0.22,-1.41,-3.67,-3.66,-3.67
40.94,-3.34,0.32,-3.34,0.32,-0.32,-1.45,-3.65,-3.65,-3.65
41.35,-3.23,0.42,-3.23,0.42,-0.41,-1.48,-3.64,-3.64,-3.65
41.76,-3.13,0.51,-3.13,0.51,-0.51,-1.52,-3.64,-3.64,-3.64
42.18,-3.03,0.60,-3.03,0.60,-0.60,-1.55,-3.63,-3.63,-3.63
42.60,-2.93,0.70,-2.93,0.69,-0.70,-1.59,-3.63,-3.63,-3.63
43.03,-2.83,0.78,-2.83,0.79,-0.79,-1.62,-3.62,-3.62,-3.61
43.46,-2.73,0.88,-2.73,0.88,-0.89,-1.66,-3.61,-3.62,-3.61
43.90,-2.64,0.98,-2.63,0.98,-0.98,-1.70,-3.62,-3.61,-3.62
44.33,-2.54,1.07,-2.54,1.07,-1.07,-1.73,-3.61,-3.61,-3.61
44.78,-2.44,1.17,-2.44,1.17,-1.16,-1.77,-3.60,-3.61,-3.61
45.23,-2.35,1.25,-2.35,1.26,-1.25,-1.81,-3.60,-3.60,-3.60
45.68,-2.25,1.35,-2.25,1.35,-1.34,-1.85,-3.59,-3.60,-3.60
46.13,-2.16,1.44,-2.16,1.43,-1.43,-1.89,-3.59,-3.59,-3.59
46.60,-2.07,1.51,-2.06,1.52,-1.52,-1.93,-3.59,-3.58,-3.58
47.06,-1.97,1.61,-1.97,1.60,-1.60,-1.96,-3.57,-3.58,-3.57
47.53,-1.88,1.69,-1.88,1.68,-1.69,-2.00,-3.57,-3.57,-3.57
48.01,-1.79,1.76,-1.79,1.77,-1.78,-2.04,-3.57,-3.56,-3.55
48.49,-1.70,1.86,-1.70,1.86,-1.86,-2.08,-3.56,-3.56,-3.56
48.97,-1.61,1.95,-1.61,1.95,-1.95,-2.11,-3.55,-3.56,-3.56
49.46,-1.53,2.03,-1.53,2.04,-2.03,-2.15,-3.56,-3.55,-3.56
49.96,-1.44,2.13,-1.44,2.12,-2.11,-2.19,-3.55,-3.55,-3.57
50.46,-1.36,2.19,-1.36,2.19,-2.19,-2.22,-3.55,-3.55,-3.55
50.96,-1.28,2.26,-1.28,2.27,-2.27,-2.25,-3.55,-3.55,-3.54
51.47,-1.20,2.34,-1.20,2.34,-2.34,-2.29,-3.54,-3.54,-3.54
51.99,-1.11,2.43,-1.12,2.42,-2.42,-2.32,-3.53,-3.53,-3.54
52.51,-1.04,2.48,-1.04,2.49,-2.49,-2.35,-3.52,-3.52,-3.52
53.03,-0.96,2.55,-0.96,2.55,-2.55,-2.38,-3.51,-3.51,-3.51
53.56,-0.88,2.62,-0.88,2.62,-2.62,-2.41,-3.50,-3.50,-3.50
54.10,-0.81,2.68,-0.81,2.68,-2.68,-2.43,-3.49,-3.49,-3.49
54.64,-0.74,2.74,-0.74,2.75,-2.74,-2.46,-3.48,-3.48,-3.48
55.18,-0.67,2.81,-0.67,2.80,-2.80,-2.48,-3.47,-3.47,-3.47
55.74,-0.60,2.87,-0.60,2.86,-2.86,-2.50,-3.46,-3.46,-3.47
56.29,-0.54,2.91,-0.54,2.92,-2.91,-2.52,-3.45,-3.45,-3.45
56.86,-0.47,2.97,-0.47,2.97,-2.97,-2.53,-3.43,-3.44,-3.44
57.42,-0.41,3.02,-0.41,3.01,-3.01,-2.55,-3.42,-3.42,-3.43
58.00,-0.35,3.06,-0.34,3.06,-3.06,-2.56,-3.41,-3.41,-3.41
58.58,-0.28,3.11,-0.28,3.11,-3.11,-2.57,-3.39,-3.39,-3.39
59.16,-0.22,3.15,-0.22,3.15,-3.15,-2.57,-3.37,-3.37,-3.37
59.76,-0.16,3.19,-0.16,3.19,-3.20,-2.58,-3.36,-3.36,-3.35
60.35,-0.10,3.24,-0.10,3.24,-3.24,-2.58,-3.34,-3.34,-3.34
60.96,-0.04,3.28,-0.04,3.29,-3.29,-2.58,-3.33,-3.33,-3.32
61.57,0.01,3.33,0.01,3.33,-3.33,-2.58,-3.32,-3.32,-3.32
62.18,0.07,3.38,0.07,3.38,-3.38,-2.57,-3.31,-3.31,-3.31
62.80,0.13,3.42,0.13,3.43,-3.42,-2.56,-3.29,-3.29,-3.29
63.43,0.19,3.48,0.19,3.47,-3.46,-2.55,-3.27,-3.28,-3.28
64.07,0.24,3.51,0.24,3.51,-3.51,-2.54,-3.26,-3.26,-3.26
64.71,0.30,3.55,0.30,3.55,-3.55,-2.52,-3.24,-3.25,-3.25
65.35,0.35,3.58,0.35,3.58,-3.58,-2.51,-3.23,-3.23,-3.23
66.01,0.41,3.62,0.41,3.62,-3.62,-2.49,-3.21,-3.21,-3.21
66.67,0.46,3.65,0.46,3.65,-3.66,-2.47,-3.20,-3.19,-3.19
67.33,0.52,3.69,0.52,3.69,-3.69,-2.45,-3.17,-3.17,-3.17
68.01,0.58,3.73,0.58,3.73,-3.73,-2.42,-3.15,-3.15,-3.15
68.69,0.63,3.76,0.63,3.77,-3.76,-2.40,-3.13,-3.13,-3.13
69.37,0.68,3.80,0.68,3.80,-3.80,-2.37,-3.12,-3.12,-3.12
70.07,0.73,3.83,0.73,3.83,-3.83,-2.34,-3.10,-3.10,-3.10
70.77,0.78,3.85,0.79,3.86,-3.86,-2.31,-3.08,-3.08,-3.07
71.48,0.84,3.89,0.84,3.89,-3.89,-2.28,-3.05,-3.06,-3.05
72.19,0.89,3.93,0.89,3.92,-3.92,-2.25,-3.03,-3.04,-3.04
72.91,0.93,3.95,0.94,3.95,-3.95,-2.22,-3.02,-3.01,-3.02
73.64,0.98,3.98,0.98,3.98,-3.98,-2.19,-2.99,-3.00,-3.00
74.38,1.02,4.00,1.02,4.00,-4.00,-2.15,-2.98,-2.98,-2.98
75.12,1.06,4.02,1.06,4.02,-4.02,-2.12,-2.96,-2.96,-2.96
75.87,1.10,4.03,1.10,4.03,-4.03,-2.09,-2.93,-2.93,-2.93
76.63,1.13,4.04,1.14,4.05,-4.05,-2.05,-2.91,-2.91,-2.91
77.40,1.17,4.05,1.17,4.05,-4.05,-2.02,-2.88,-2.89,-2.88
78.17,1.20,4.07,1.20,4.06,-4.06,-1.99,-2.86,-2.86,-2.87
78.95,1.22,4.05,1.23,4.06,-4.06,-1.95,-2.84,-2.83,-2.83
79.74,1.25,4.06,1.25,4.06,-4.05,-1.92,-2.80,-2.81,-2.81
80.54,1.27,4.05,1.27,4.05,-4.05,-1.89,-2.78,-2.78,-2.78
81.35,1.28,4.04,1.28,4.04,-4.04,-1.85,-2.76,-2.76,-2.76
82.16,1.29,4.03,1.29,4.02,-4.03,-1.82,-2.73,-2.74,-2.74
82.98,1.29,3.99,1.29,4.00,-4.01,-1.79,-2.72,-2.72,-2.70
83.81,1.30,3.99,1.30,3.99,-3.99,-1.76,-2.69,-2.69,-2.69
84.65,1.31,3.98,1.31,3.97,-3.97,-1.72,-2.66,-2.66,-2.67
85.50,1.32,3.95,1.32,3.96,-3.95,-1.69,-2.63,-2.63,-2.63
86.35,1.32,3.93,1.32,3.93,-3.92,-1.66,-2.60,-2.61,-2.61
87.22,1.31,3.90,1.31,3.90,-3.90,-1.63,-2.59,-2.58,-2.59
88.09,1.30,3.87,1.30,3.86,-3.87,-1.61,-2.57,-2.57,-2.57
88.97,1.29,3.83,1.29,3.83,-3.84,-1.58,-2.55,-2.54,-2.54
89.86,1.28,3.80,1.28,3.80,-3.80,-1.55,-2.52,-2.52,-2.51
90.76,1.27,3.77,1.27,3.77,-3.76,-1.52,-2.49,-2.50,-2.50
91.66,1.25,3.72,1.25,3.73,-3.73,-1.50,-2.47,-2.47,-2.47
92.58,1.23,3.69,1.23,3.69,-3.69,-1.47,-2.46,-2.45,-2.46
93.51,1.21,3.64,1.21,3.64,-3.65,-1.45,-2.43,-2.43,-2.43
94.44,1.19,3.60,1.19,3.60,-3.60,-1.42,-2.41,-2.42,-2.41
95.39,1.16,3.55,1.16,3.56,-3.56,-1.40,-2.40,-2.40,-2.39
96.34,1.13,3.51,1.14,3.52,-3.52,-1.38,-2.39,-2.38,-2.38
97.30,1.11,3.48,1.11,3.47,-3.47,-1.35,-2.36,-2.36,-2.36
98.28,1.08,3.43,1.08,3.43,-3.42,-1.33,-2.34,-2.34,-2.35
99.26,1.05,3.38,1.05,3.38,-3.38,-1.31,-2.33,-2.32,-2.33
100.25,1.02,3.33,1.02,3.33,-3.33,-1.29,-2.31,-2.31,-2.31
101.25,0.98,3.27,0.98,3.28,-3.28,-1.27,-2.30,-2.29,-2.29
102.27,0.95,3.22,0.95,3.22,-3.23,-1.26,-2.27,-2.28,-2.27
103.29,0.91,3.18,0.91,3.17,-3.17,-1.24,-2.26,-2.26,-2.27
104.32,0.88,3.12,0.88,3.12,-3.12,-1.22,-2.24,-2.24,-2.24
105.37,0.84,3.06,0.84,3.06,-3.07,-1.20,-2.22,-2.22,-2.22
106.42,0.80,3.00,0.80,3.01,-3.01,-1.19,-2.21,-2.21,-2.20
107.48,0.77,2.96,0.77,2.96,-2.95,-1.17,-2.18,-2.19,-2.19
108.56,0.72,2.90,0.72,2.90,-2.90,-1.16,-2.18,-2.17,-2.18
109.64,0.68,2.84,0.68,2.84,-2.84,-1.15,-2.16,-2.16,-2.16
110.74,0.63,2.78,0.63,2.78,-2.78,-1.13,-2.15,-2.15,-2.15
111.85,0.58,2.71,0.58,2.72,-2.72,-1.12,-2.14,-2.14,-2.13
112.97,0.53,2.67,0.53,2.66,-2.66,-1.11,-2.13,-2.13,-2.14
114.10,0.47,2.59,0.47,2.60,-2.60,-1.10,-2.13,-2.12,-2.12
115.24,0.42,2.54,0.42,2.53,-2.53,-1.09,-2.11,-2.12,-2.12
116.39,0.35,2.46,0.35,2.46,-2.46,-1.08,-2.11,-2.11,-2.11
117.55,0.29,2.40,0.29,2.39,-2.39,-1.07,-2.10,-2.10,-2.10
118.73,0.22,2.32,0.22,2.32,-2.32,-1.06,-2.09,-2.10,-2.10
119.92,0.15,2.24,0.15,2.24,-2.24,-1.05,-2.09,-2.09,-2.09
121.12,0.07,2.15,0.07,2.16,-2.15,-1.04,-2.08,-2.08,-2.08
122.33,0.00,2.08,-0.00,2.07,-2.07,-1.04,-2.07,-2.07,-2.08
123.55,-0.09,1.97,-0.09,1.98,-1.98,-1.03,-2.07,-2.07,-2.06
124.79,-0.17,1.89,-0.17,1.89,-1.89,-1.03,-2.06,-2.06,-2.06
126.03,-0.26,1.79,-0.26,1.79,-1.80,-1.02,-2.06,-2.06,-2.05
127.29,-0.35,1.70,-0.35,1.70,-1.70,-1.01,-2.05,-2.05,-2.05
128.57,-0.45,1.61,-0.44,1.61,-1.60,-1.01,-2.05,-2.05,-2.06
129.85,-0.54,1.51,-0.54,1.51,-1.50,-1.00,-2.04,-2.05,-2.05
131.15,-0.64,1.41,-0.64,1.41,-1.40,-1.00,-2.04,-2.04,-2.05
132.46,-0.75,1.30,-0.75,1.30,-1.29,-1.00,-2.04,-2.04,-2.04
133.79,-0.85,1.18,-0.85,1.19,-1.19,-0.99,-2.04,-2.04,-2.03
135.12,-0.96,1.08,-0.96,1.07,-1.08,-0.99,-2.04,-2.04,-2.04
136.48,-1.06,0.97,-1.06,0.97,-0.97,-0.99,-2.03,-2.03,-2.03
137.84,-1.17,0.85,-1.17,0.86,-0.86,-0.99,-2.03,-2.03,-2.02
139.22,-1.27,0.76,-1.27,0.75,-0.75,-0.99,-2.02,-2.02,-2.03
140.61,-1.37,0.66,-1.37,0.65,-0.65,-0.99,-2.01,-2.01,-2.03
142.02,-1.47,0.53,-1.47,0.54,-0.54,-0.98,-2.01,-2.01,-2.00
143.44,-1.56,0.44,-1.56,0.44,-0.44,-0.98,-2.00,-2.00,-2.00
144.87,-1.66,0.34,-1.66,0.34,-0.34,-0.98,-2.00,-2.00,-2.00
146.32,-1.75,0.25,-1.75,0.24,-0.25,-0.98,-1.99,-1.99,-2.00
147.78,-1.83,0.15,-1.83,0.15,-0.15,-0.99,-1.98,-1.99,-1.98
149.26,-1.92,0.06,-1.91,0.07,-0.07,-0.99,-1.99,-1.99,-1.98
150.75,-1.99,-0.00,-1.99,-0.01,0.01,-0.99,-1.98,-1.99,-1.99
152.26,-2.06,-0.07,-2.06,-0.08,0.08,-0.99,-1.98,-1.99,-1.99
153.78,-2.13,-0.15,-2.12,-0.14,0.14,-0.99,-1.99,-1.99,-1.98
155.32,-2.18,-0.19,-2.18,-0.19,0.19,-0.99,-1.99,-1.99,-1.99
156.88,-2.23,-0.24,-2.23,-0.24,0.24,-1.00,-1.99,-1.99,-1.99
158.44,-2.28,-0.28,-2.28,-0.28,0.28,-1.00,-2.00,-2.00,-2.00
160.03,-2.32,-0.31,-2.32,-0.31,0.31,-1.00,-2.00,-2.00,-2.00
161.63,-2.35,-0.34,-2.35,-0.34,0.34,-1.01,-2.01,-2.01,-2.01
163.24,-2.38,-0.36,-2.38,-0.36,0.36,-1.01,-2.02,-2.02,-2.02
164.88,-2.41,-0.39,-2.40,-0.38,0.38,-1.02,-2.03,-2.02,-2.02
166.53,-2.41,-0.38,-2.41,-0.39,0.39,-1.02,-2.02,-2.03,-2.03
168.19,-2.42,-0.38,-2.42,-0.39,0.39,-1.03,-2.03,-2.03,-2.03
169.87,-2.43,-0.39,-2.42,-0.38,0.39,-1.03,-2.04,-2.04,-2.04
171.57,-2.43,-0.38,-2.43,-0.38,0.38,-1.04,-2.05,-2.05,-2.05
173.29,-2.42,-0.36,-2.42,-0.37,0.36,-1.05,-2.06,-2.06,-2.06
175.02,-2.42,-0.35,-2.42,-0.35,0.34,-1.05,-2.08,-2.08,-2.07
176.77,-2.41,-0.32,-2.41,-0.32,0.32,-1.06,-2.09,-2.09,-2.09
178.54,-2.39,-0.29,-2.39,-0.29,0.29,-1.07,-2.10,-2.10,-2.10
180.32,-2.36,-0.25,-2.36,-0.25,0.25,-1.08,-2.11,-2.11,-2.11
182.13,-2.34,-0.22,-2.34,-0.21,0.22,-1.09,-2.12,-2.12,-2.12
183.95,-2.31,-0.17,-2.31,-0.17,0.17,-1.10,-2.13,-2.14,-2.14
185.79,-2.28,-0.13,-2.28,-0.13,0.13,-1.11,-2.15,-2.15,-2.15
187.65,-2.25,-0.08,-2.25,-0.08,0.08,-1.12,-2.16,-2.16,-2.16
189.52,-2.21,-0.04,-2.21,-0.04,0.04,-1.13,-2.17,-2.17,-2.17
191.42,-2.17,0.01,-2.17,0.01,-0.01,-1.14,-2.18,-2.18,-2.18
193.33,-2.13,0.06,-2.13,0.06,-0.06,-1.16,-2.19,-2.19,-2.19
195.27,-2.09,0.11,-2.09,0.11,-0.11,-1.17,-2.20,-2.20,-2.20
197.22,-2.05,0.16,-2.05,0.16,-0.16,-1.18,-2.21,-2.21,-2.21
199.19,-2.01,0.22,-2.01,0.21,-0.21,-1.20,-2.22,-2.22,-2.22
201.18,-1.97,0.25,-1.97,0.26,-0.26,-1.21,-2.23,-2.23,-2.22
203.19,-1.92,0.30,-1.92,0.31,-0.31,-1.23,-2.23,-2.23,-2.22
205.23,-1.87,0.36,-1.87,0.35,-0.35,-1.25,-2.22,-2.22,-2.23
207.28,-1.82,0.40,-1.82,0.40,-0.40,-1.26,-2.22,-2.22,-2.22
209.35,-1.78,0.45,-1.78,0.45,-0.44,-1.28,-2.22,-2.22,-2.23
211.44,-1.74,0.49,-1.74,0.49,-0.49,-1.30,-2.22,-2.22,-2.23
213.56,-1.70,0.52,-1.70,0.52,-0.53,-1.32,-2.23,-2.23,-2.22
215.69,-1.66,0.55,-1.66,0.56,-0.57,-1.34,-2.22,-2.22,-2.21
217.85,-1.61,0.60,-1.61,0.60,-0.60,-1.36,-2.21,-2.21,-2.21
220.03,-1.57,0.64,-1.57,0.64,-0.64,-1.38,-2.20,-2.20,-2.21
222.23,-1.52,0.68,-1.52,0.67,-0.67,-1.41,-2.18,-2.19,-2.20
224.45,-1.49,0.69,-1.49,0.70,-0.69,-1.43,-2.18,-2.18,-2.18
226.70,-1.45,0.72,-1.45,0.72,-0.72,-1.46,-2.17,-2.17,-2.17
228.96,-1.41,0.75,-1.41,0.74,-0.74,-1.48,-2.15,-2.16,-2.16
231.25,-1.38,0.76,-1.38,0.76,-0.76,-1.51,-2.14,-2.14,-2.14
233.57,-1.35,0.77,-1.35,0.78,-0.78,-1.54,-2.13,-2.13,-2.12
235.90,-1.31,0.80,-1.31,0.80,-0.80,-1.56,-2.11,-2.11,-2.11
238.26,-1.28,0.82,-1.28,0.82,-0.82,-1.59,-2.10,-2.09,-2.10
240.64,-1.24,0.84,-1.24,0.83,-0.83,-1.62,-2.07,-2.07,-2.08
243.05,-1.21,0.84,-1.21,0.85,-0.85,-1.65,-2.06,-2.05,-2.05
245.48,-1.17,0.86,-1.17,0.86,-0.86,-1.69,-2.03,-2.03,-2.03
247.93,-1.13,0.88,-1.13,0.88,-0.88,-1.72,-2.01,-2.01,-2.01
250.41,-1.10,0.90,-1.10,0.89,-0.89,-1.75,-1.99,-1.99,-2.00
252.92,-1.06,0.90,-1.06,0.90,-0.91,-1.79,-1.96,-1.96,-1.96
255.45,-1.02,0.91,-1.02,0.92,-0.92,-1.82,-1.94,-1.94,-1.93
258.00,-0.97,0.94,-0.97,0.93,-0.94,-1.86,-1.91,-1.91,-1.91
260.58,-0.93,0.96,-0.92,0.96,-0.96,-1.90,-1.89,-1.88,-1.88
263.19,-0.87,0.98,-0.87,0.98,-0.98,-1.93,-1.85,-1.85,-1.85
265.82,-0.82,1.01,-0.82,1.00,-1.00,-1.97,-1.82,-1.82,-1.83
268.48,-0.77,1.03,-0.77,1.03,-1.03,-2.01,-1.80,-1.80,-1.80
271.16,-0.71,1.05,-0.71,1.06,-1.06,-2.05,-1.77,-1.77,-1.76
273.87,-0.64,1.10,-0.64,1.09,-1.10,-2.10,-1.74,-1.74,-1.74
276.61,-0.57,1.14,-0.57,1.13,-1.14,-2.14,-1.70,-1.71,-1.70
279.38,-0.51,1.17,-0.50,1.18,-1.18,-2.18,-1.69,-1.68,-1.68
282.17,-0.43,1.23,-0.43,1.23,-1.23,-2.23,-1.66,-1.65,-1.66
284.99,-0.34,1.28,-0.35,1.28,-1.28,-2.27,-1.62,-1.63,-1.62
287.84,-0.26,1.34,-0.26,1.34,-1.34,-2.32,-1.60,-1.60,-1.60
290.72,-0.17,1.40,-0.17,1.40,-1.40,-2.36,-1.57,-1.57,-1.57
293.63,-0.07,1.47,-0.07,1.47,-1.47,-2.41,-1.54,-1.54,-1.54
296.57,0.03,1.54,0.03,1.54,-1.54,-2.46,-1.51,-1.51,-1.51
299.53,0.14,1.62,0.14,1.62,-1.61,-2.51,-1.47,-1.48,-1.48
302.53,0.24,1.70,0.24,1.69,-1.69,-2.55,-1.45,-1.45,-1.46
305.55,0.35,1.76,0.35,1.77,-1.77,-2.60,-1.42,-1.42,-1.41
308.61,0.46,1.85,0.46,1.85,-1.85,-2.65,-1.39,-1.39,-1.39
311.69,0.58,1.93,0.58,1.93,-1.93,-2.70,-1.35,-1.35,-1.35
314.81,0.70,2.01,0.70,2.01,-2.02,-2.74,-1.32,-1.32,-1.31
317.96,0.82,2.10,0.82,2.10,-2.11,-2.79,-1.29,-1.29,-1.28
321.14,0.94,2.20,0.94,2.19,-2.20,-2.84,-1.26,-1.26,-1.26
324.35,1.06,2.29,1.06,2.29,-2.29,-2.89,-1.23,-1.23,-1.23
327.59,1.19,2.38,1.19,2.38,-2.38,-2.93,-1.19,-1.20,-1.19
330.87,1.31,2.48,1.31,2.48,-2.48,-2.98,-1.16,-1.16,-1.17
334.18,1.43,2.57,1.43,2.57,-2.57,-3.02,-1.14,-1.14,-1.14
337.52,1.55,2.66,1.55,2.66,-2.66,-3.06,-1.11,-1.11,-1.11
340.90,1.66,2.74,1.66,2.74,-2.74,-3.10,-1.08,-1.08,-1.08
344.30,1.77,2.82,1.77,2.82,-2.82,-3.14,-1.05,-1.05,-1.05
347.75,1.88,2.90,1.88,2.90,-2.90,-3.18,-1.02,-1.02,-1.02
351.23,1.99,2.99,1.99,2.98,-2.98,-3.21,-0.99,-0.99,-0.99
354.74,2.08,3.05,2.08,3.05,-3.05,-3.25,-0.97,-0.96,-0.97
358.28,2.17,3.11,2.17,3.11,-3.11,-3.28,-0.94,-0.94,-0.94
361.87,2.26,3.17,2.26,3.17,-3.17,-3.30,-0.91,-0.92,-0.91
365.49,2.34,3.22,2.34,3.23,-3.23,-3.33,-0.89,-0.89,-0.88
369.14,2.42,3.28,2.42,3.28,-3.28,-3.35,-0.86,-0.86,-0.86
372.83,2.49,3.33,2.49,3.33,-3.32,-3.37,-0.83,-0.83,-0.83
376.56,2.56,3.38,2.56,3.37,-3.36,-3.38,-0.80,-0.80,-0.82
380.33,2.61,3.39,2.61,3.39,-3.39,-3.40,-0.78,-0.78,-0.78
384.13,2.66,3.42,2.66,3.42,-3.42,-3.40,-0.76,-0.76,-0.76
387.97,2.71,3.45,2.71,3.44,-3.45,-3.41,-0.74,-0.74,-0.74
391.85,2.75,3.47,2.75,3.47,-3.47,-3.41,-0.72,-0.72,-0.72
395.77,2.79,3.48,2.80,3.49,-3.48,-3.40,-0.69,-0.69,-0.69
399.73,2.84,3.51,2.83,3.50,-3.50,-3.40,-0.66,-0.66,-0.66
403.72,2.87,3.51,2.87,3.51,-3.51,-3.39,-0.64,-0.64,-0.64
407.76,2.89,3.51,2.90,3.52,-3.51,-3.37,-0.62,-0.61,-0.62
411.84,2.92,3.51,2.92,3.51,-3.51,-3.35,-0.59,-0.59,-0.59
415.96,2.94,3.51,2.94,3.51,-3.51,-3.33,-0.57,-0.57,-0.57
420.12,2.95,3.50,2.96,3.50,-3.50,-3.30,-0.55,-0.55,-0.55
424.32,2.97,3.49,2.97,3.49,-3.49,-3.27,-0.52,-0.52,-0.52
428.56,2.98,3.48,2.98,3.48,-3.48,-3.24,-0.50,-0.50,-0.50
432.85,2.99,3.47,2.99,3.47,-3.46,-3.20,-0.47,-0.48,-0.48
437.18,2.99,3.44,2.99,3.44,-3.45,-3.16,-0.46,-0.46,-0.45
441.55,3.00,3.42,3.00,3.43,-3.44,-3.12,-0.43,-0.43,-0.42
445.96,3.01,3.41,3.01,3.41,-3.42,-3.07,-0.41,-0.41,-0.40
450.42,3.03,3.40,3.03,3.40,-3.40,-3.02,-0.37,-0.37,-0.37
454.93,3.05,3.39,3.05,3.39,-3.38,-2.97,-0.33,-0.33,-0.34
459.48,3.06,3.37,3.06,3.37,-3.36,-2.91,-0.30,-0.30,-0.31
464.07,3.06,3.34,3.06,3.34,-3.34,-2.86,-0.27,-0.27,-0.28
468.71,3.06,3.30,3.06,3.31,-3.31,-2.80,-0.25,-0.25,-0.24
473.40,3.06,3.28,3.06,3.27,-3.28,-2.74,-0.22,-0.22,-0.22
478.13,3.06,3.24,3.06,3.24,-3.24,-2.67,-0.18,-0.18,-0.18
482.91,3.05,3.21,3.06,3.21,-3.20,-2.61,-0.15,-0.15,-0.15
487.74,3.05,3.17,3.05,3.17,-3.16,-2.54,-0.11,-0.11,-0.12
492.62,3.04,3.12,3.04,3.12,-3.12,-2.48,-0.08,-0.08,-0.08
497.55,3.02,3.07,3.03,3.08,-3.08,-2.41,-0.06,-0.05,-0.05
502.52,3.01,3.03,3.01,3.03,-3.04,-2.34,-0.03,-0.03,-0.02
507.55,3.00,2.99,3.00,2.99,-2.99,-2.27,0.01,0.01,0.01
512.62,2.99,2.94,3.00,2.95,-2.95,-2.20,0.04,0.05,0.05
517.75,2.99,2.90,2.99,2.90,-2.90,-2.13,0.09,0.09,0.09
522.93,2.98,2.86,2.98,2.86,-2.85,-2.06,0.13,0.13,0.12
528.16,2.96,2.81,2.96,2.81,-2.80,-1.99,0.16,0.16,0.15
533.44,2.95,2.76,2.95,2.76,-2.75,-1.92,0.20,0.20,0.19
538.77,2.93,2.70,2.93,2.70,-2.70,-1.85,0.23,0.23,0.23
544.16,2.92,2.65,2.92,2.65,-2.65,-1.78,0.27,0.27,0.27
549.60,2.90,2.59,2.90,2.60,-2.60,-1.71,0.30,0.30,0.31
555.10,2.89,2.56,2.89,2.55,-2.56,-1.64,0.33,0.33,0.34
560.65,2.88,2.51,2.88,2.51,-2.52,-1.57,0.37,0.37,0.37
566.25,2.88,2.47,2.88,2.47,-2.47,-1.50,0.41,0.41,0.41
571.92,2.88,2.44,2.88,2.44,-2.44,-1.43,0.45,0.44,0.44
577.64,2.88,2.41,2.88,2.40,-2.40,-1.36,0.48,0.48,0.47
583.41,2.88,2.37,2.88,2.37,-2.36,-1.29,0.52,0.52,0.51
589.25,2.88,2.33,2.88,2.33,-2.33,-1.23,0.55,0.55,0.55
595.14,2.88,2.29,2.88,2.29,-2.29,-1.16,0.59,0.59,0.59
601.09,2.88,2.26,2.88,2.26,-2.26,-1.09,0.62,0.62,0.62
607.10,2.88,2.22,2.88,2.22,-2.23,-1.03,0.66,0.66,0.66
