frequency,raw
20.00,-61.06
20.20,-60.90
20.40,-60.72
20.61,-60.58
20.81,-60.40
21.02,-60.26
21.23,-60.10
21.44,-59.92
21.66,-59.78
21.87,-59.60
22.09,-59.44
22.31,-59.28
22.54,-59.14
22.76,-58.96
22.99,-58.82
23.22,-58.66
23.45,-58.48
23.69,-58.34
23.92,-58.16
24.16,-58.00
24.40,-57.84
24.65,-57.70
24.89,-57.52
25.14,-57.36
25.39,-57.20
25.65,-57.06
25.91,-56.90
26.16,-56.72
26.43,-56.58
26.69,-56.42
26.96,-56.26
27.23,-56.10
27.50,-55.94
27.77,-55.76
28.05,-55.60
28.33,-55.44
28.62,-55.30
28.90,-55.12
29.19,-54.98
29.48,-54.80
29.78,-54.66
30.08,-54.50
30.38,-54.34
30.68,-54.18
30.99,-54.02
31.30,-53.86
31.61,-53.70
31.93,-53.54
32.24,-53.36
32.57,-53.22
32.89,-53.04
33.22,-52.88
33.55,-52.72
33.89,-52.58
34.23,-52.42
34.57,-52.26
34.92,-52.10
35.27,-51.94
35.62,-51.78
35.97,-51.60
36.33,-51.44
36.70,-51.30
37.06,-51.11
37.43,-50.95
37.81,-50.81
38.19,-50.65
38.57,-50.49
38.95,-50.31
39.34,-50.15
39.74,-50.01
40.14,-49.85
40.54,-49.69
40.94,-49.51
41.35,-49.35
41.76,-49.19
42.18,-49.03
42.60,-48.87
43.03,-48.73
43.46,-48.57
43.90,-48.41
44.33,-48.23
44.78,-48.09
45.23,-47.93
45.68,-47.77
46.13,-47.59
46.60,-47.45
47.06,-47.27
47.53,-47.11
48.01,-46.97
48.49,-46.81
48.97,-46.63
49.46,-46.47
49.96,-46.33
50.46,-46.17
50.96,-46.01
51.47,-45.85
51.99,-45.69
52.51,-45.53
53.03,-45.37
53.56,-45.21
54.10,-45.05
54.64,-44.89
55.18,-44.71
55.74,-44.57
56.29,-44.39
56.86,-44.25
57.42,-44.07
58.00,-43.93
58.58,-43.77
59.16,-43.59
59.76,-43.45
60.35,-43.27
60.96,-43.13
61.57,-42.97
62.18,-42.79
62.80,-42.63
63.43,-42.47
64.07,-42.33
64.71,-42.17
65.35,-41.99
66.01,-41.85
66.67,-41.69
67.33,-41.51
68.01,-41.37
68.69,-41.21
69.37,-41.03
70.07,-40.89
70.77,-40.73
71.48,-40.57
72.19,-40.41
72.91,-40.23
73.64,-40.07
74.38,-39.93
75.12,-39.75
75.87,-39.59
76.63,-39.43
77.40,-39.29
78.17,-39.11
78.95,-38.95
79.74,-38.79
80.54,-38.65
81.35,-38.49
82.16,-38.33
82.98,-38.17
83.81,-38.01
84.65,-37.85
85.50,-37.69
86.35,-37.53
87.22,-37.37
88.09,-37.21
88.97,-37.05
89.86,-36.89
90.76,-36.73
91.66,-36.55
92.58,-36.41
93.51,-36.25
94.44,-36.09
95.39,-35.93
96.34,-35.77
97.30,-35.59
98.28,-35.45
99.26,-35.29
100.25,-35.13
101.25,-34.95
102.27,-34.81
103.29,-34.65
104.32,-34.49
105.37,-34.33
106.42,-34.17
107.48,-33.99
108.56,-33.85
109.64,-33.67
110.74,-33.53
111.85,-33.37
112.97,-33.21
114.10,-33.04
115.24,-32.88
116.39,-32.72
117.55,-32.56
118.73,-32.40
119.92,-32.24
121.12,-32.08
122.33,-31.92
123.55,-31.76
124.79,-31.60
126.03,-31.44
127.29,-31.28
128.57,-31.12
129.85,-30.96
131.15,-30.80
132.46,-30.64
133.79,-30.48
135.12,-30.31
136.48,-30.16
137.84,-30.00
139.22,-29.84
140.61,-29.68
142.02,-29.52
143.44,-29.36
144.87,-29.20
146.32,-29.04
147.78,-28.88
149.26,-28.72
150.75,-28.56
152.26,-28.40
153.78,-28.24
155.32,-28.08
156.88,-27.92
158.44,-27.76
160.03,-27.60
161.63,-27.44
163.24,-27.28
164.88,-27.12
166.53,-26.96
168.19,-26.80
169.87,-26.64
171.57,-26.48
173.29,-26.32
175.02,-26.16
176.77,-26.00
178.54,-25.84
180.32,-25.68
182.13,-25.52
183.95,-25.36
185.79,-25.20
187.65,-25.04
189.52,-24.88
191.42,-24.72
193.33,-24.56
195.27,-24.40
197.22,-24.24
199.19,-24.08
201.18,-23.92
203.19,-23.76
205.23,-23.60
207.28,-23.44
209.35,-23.28
211.44,-23.12
213.56,-22.96
215.69,-22.80
217.85,-22.64
220.03,-22.48
222.23,-22.32
224.45,-22.16
226.70,-22.00
228.96,-21.84
231.25,-21.68
233.57,-21.52
235.90,-21.36
238.26,-21.20
240.64,-21.04
243.05,-20.88
245.48,-20.72
247.93,-20.56
250.41,-20.40
252.92,-20.24
255.45,-20.08
258.00,-19.92
260.58,-19.76
263.19,-19.60
265.82,-19.44
268.48,-19.28
271.16,-19.12
273.87,-18.96
276.61,-18.80
279.38,-18.64
282.17,-18.48
284.99,-18.32
287.84,-18.16
290.72,-18.00
293.63,-17.84
296.57,-17.68
299.53,-17.52
302.53,-17.36
305.55,-17.20
308.61,-17.04
311.69,-16.88
314.81,-16.72
317.96,-16.56
321.14,-16.40
324.35,-16.24
327.59,-16.08
330.87,-15.92
334.18,-15.76
337.52,-15.60
340.90,-15.44
344.30,-15.28
347.75,-15.12
351.23,-14.96
354.74,-14.79
358.28,-14.63
361.87,-14.47
365.49,-14.31
369.14,-14.15
372.83,-13.99
376.56,-13.83
380.33,-13.67
384.13,-13.51
387.97,-13.35
391.85,-13.19
395.77,-13.03
399.73,-12.87
403.72,-12.71
407.76,-12.55
411.84,-12.39
415.96,-12.23
420.12,-12.07
424.32,-11.91
428.56,-11.75
432.85,-11.59
437.18,-11.43
441.55,-11.27
445.96,-11.11
450.42,-10.95
454.93,-10.79
459.48,-10.63
464.07,-10.48
468.71,-10.32
473.40,-10.18
478.13,-10.04
482.91,-9.88
487.74,-9.76
492.62,-9.65
497.55,-9.52
502.52,-9.39
507.55,-9.26
512.62,-9.14
517.75,-9.04
522.93,-8.91
528.16,-8.77
533.44,-8.64
538.77,-8.53
544.16,-8.43
549.60,-8.32
555.10,-8.20
560.65,-8.07
566.25,-7.93
571.92,-7.81
577.64,-7.71
583.41,-7.56
589.25,-7.41
595.14,-7.30
601.09,-7.17
607.10,-7.02
613.17,-6.91
619.30,-6.77
625.50,-6.62
631.75,-6.47
638.07,-6.31
644.45,-6.15
650.89,-5.99
657.40,-5.83
663.98,-5.67
670.62,-5.52
677.32,-5.39
684.10,-5.24
690.94,-5.09
697.85,-4.93
704.83,-4.78
711.87,-4.65
718.99,-4.49
726.18,-4.33
733.44,-4.17
740.78,-4.02
748.19,-3.88
755.67,-3.74
763.23,-3.58
770.86,-3.44
778.57,-3.31
786.35,-3.16
794.22,-3.02
802.16,-2.87
810.18,-2.72
818.28,-2.56
826.46,-2.44
834.73,-2.32
843.08,-2.17
851.51,-2.03
860.02,-1.90
868.62,-1.77
877.31,-1.62
886.08,-1.46
894.94,-1.34
903.89,-1.23
912.93,-1.08
922.06,-0.95
931.28,-0.84
940.59,-0.72
950.00,-0.60
959.50,-0.45
969.09,-0.33
978.78,-0.22
988.57,-0.12
998.46,-0.02
1008.44,0.08
1018.53,0.19
1028.71,0.30
1039.00,0.41
1049.39,0.51
1059.88,0.62
1070.48,0.66
1081.19,0.66
1092.00,0.66
1102.92,0.66
1113.95,0.66
1125.09,0.65
1136.34,0.62
1147.70,0.59
1159.18,0.54
1170.77,0.48
1182.48,0.44
1194.30,0.39
1206.25,0.34
1218.31,0.30
1230.49,0.25
1242.80,0.20
1255.22,0.15
1267.78,0.10
1280.45,0.05
1293.26,0.01
1306.19,-0.03
1319.25,-0.06
1332.45,-0.09
1345.77,-0.11
1359.23,-0.11
1372.82,-0.11
1386.55,-0.11
1400.41,-0.11
1414.42,-0.11
1428.56,-0.11
1442.85,-0.11
1457.28,-0.11
1471.85,-0.11
1486.57,-0.11
1501.43,-0.11
1516.45,-0.09
1531.61,-0.06
1546.93,-0.02
1562.40,0.00
1578.02,0.03
1593.80,0.06
1609.74,0.11
1625.84,0.16
1642.10,0.21
1658.52,0.26
1675.10,0.31
1691.85,0.38
1708.77,0.44
1725.86,0.51
1743.12,0.56
1760.55,0.60
1778.15,0.64
1795.94,0.67
1813.90,0.69
1832.03,0.72
1850.36,0.75
1868.86,0.77
1887.55,0.79
1906.42,0.81
1925.49,0.82
1944.74,0.84
1964.19,0.84
1983.83,0.84
2003.67,0.84
2023.71,0.84
2043.94,0.85
2064.38,0.86
2085.03,0.87
2105.88,0.87
2126.94,0.88
2148.20,0.89
2169.69,0.90
2191.38,0.90
2213.30,0.91
2235.43,0.92
2257.78,0.92
2280.36,0.92
2303.17,0.94
2326.20,0.96
2349.46,0.97
2372.95,0.99
2396.68,1.01
2420.65,1.04
2444.86,1.08
2469.31,1.12
2494.00,1.16
2518.94,1.21
2544.13,1.26
2569.57,1.31
2595.27,1.37
2621.22,1.42
2647.43,1.46
2673.90,1.50
2700.64,1.53
2727.65,1.56
2754.93,1.59
2782.48,1.62
2810.30,1.64
2838.40,1.66
2866.79,1.68
2895.46,1.69
2924.41,1.69
2953.65,1.71
2983.19,1.73
3013.02,1.75
3043.15,1.77
3073.58,1.78
3104.32,1.79
3135.36,1.80
3166.72,1.82
3198.38,1.83
3230.37,1.85
3262.67,1.86
3295.30,1.89
3328.25,1.91
3361.53,1.93
3395.15,1.95
3429.10,1.99
3463.39,2.03
3498.03,2.06
3533.01,2.10
3568.34,2.13
3604.02,2.19
3640.06,2.23
3676.46,2.27
3713.22,2.32
3750.36,2.38
3787.86,2.43
3825.74,2.48
3864.00,2.52
3902.64,2.56
3941.66,2.60
3981.08,2.64
4020.89,2.66
4061.10,2.69
4101.71,2.71
4142.73,2.75
4184.15,2.81
4226.00,2.88
4268.26,2.94
4310.94,3.00
4354.05,3.07
4397.59,3.14
4441.56,3.21
4485.98,3.28
4530.84,3.35
4576.15,3.42
4621.91,3.48
4668.13,3.54
4714.81,3.59
4761.96,3.62
4809.58,3.64
4857.67,3.66
4906.25,3.66
4955.31,3.66
5004.87,3.66
5054.91,3.66
5105.46,3.66
5156.52,3.66
5208.08,3.66
5260.16,3.66
5312.77,3.66
5365.89,3.66
5419.55,3.66
5473.75,3.68
5528.49,3.72
5583.77,3.76
5639.61,3.80
5696.00,3.85
5752.96,3.90
5810.49,3.96
5868.60,4.03
5927.28,4.09
5986.56,4.16
6046.42,4.26
6106.89,4.35
6167.96,4.44
6229.64,4.57
6291.93,4.68
6354.85,4.75
6418.40,4.82
6482.58,4.92
6547.41,5.00
6612.88,5.06
6679.01,5.15
6745.80,5.27
6813.26,5.45
6881.39,5.64
6950.21,5.82
7019.71,5.94
7089.91,6.06
7160.81,6.20
7232.41,6.33
7304.74,6.47
7377.79,6.60
7451.56,6.73
7526.08,6.86
7601.34,6.98
7677.35,7.08
7754.13,7.17
7831.67,7.27
7909.98,7.36
7989.08,7.40
8068.98,7.44
8149.67,7.48
8231.16,7.51
8313.47,7.55
8396.61,7.59
8480.57,7.62
8565.38,7.66
8651.03,7.69
8737.54,7.74
8824.92,7.79
8913.17,7.85
9002.30,7.90
9092.32,8.00
9183.25,8.10
9275.08,8.17
9367.83,8.24
9461.51,8.32
9556.12,8.39
9651.68,8.46
9748.20,8.52
9845.68,8.57
9944.14,8.63
10043.58,8.68
10144.02,8.72
10245.46,8.76
10347.91,8.79
10451.39,8.81
10555.91,8.81
10661.46,8.77
10768.08,8.72
10875.76,8.66
10984.52,8.54
11094.36,8.40
11205.31,8.24
11317.36,8.07
11430.53,7.90
11544.84,7.74
11660.29,7.56
11776.89,7.38
11894.66,7.21
12013.60,7.03
12133.74,6.85
12255.08,6.65
12377.63,6.45
12501.41,6.23
12626.42,5.99
12752.68,5.73
12880.21,5.46
13009.01,5.17
13139.10,4.87
13270.49,4.56
13403.20,4.19
13537.23,3.77
13672.60,3.33
13809.33,2.83
13947.42,2.32
14086.90,1.79
14227.77,1.35
14370.04,0.79
14513.74,0.26
14658.88,-0.24
14805.47,-0.79
14953.52,-1.31
15103.06,-1.80
15254.09,-2.38
15406.63,-3.02
15560.70,-3.62
15716.30,-4.22
15873.47,-4.91
16032.20,-5.59
16192.52,-6.32
16354.45,-7.10
16517.99,-7.89
16683.17,-8.83
16850.01,-9.83
17018.51,-10.94
17188.69,-12.07
17360.58,-13.19
17534.18,-14.31
17709.53,-15.43
17886.62,-16.55
18065.49,-17.67
18246.14,-18.79
18428.60,-19.91
18612.89,-21.03
18799.02,-22.16
18987.01,-23.28
19176.88,-24.40
19368.65,-25.52
19562.33,-26.64
19757.96,-27.76
19955.54,-28.88
