frequency,raw,error,smoothed,error_smoothed,equalization,fixed_band_eq,equalized_raw,equalized_smoothed,target
20.00,-33.31,-31.85,-33.31,-31.85,6.00,0.89,-27.31,-27.31,-1.46
20.20,-33.22,-31.76,-33.22,-31.77,6.00,0.91,-27.22,-27.22,-1.46
20.40,-33.14,-31.68,-33.14,-31.68,6.00,0.93,-27.14,-27.14,-1.46
20.61,-33.05,-31.59,-33.05,-31.59,6.00,0.95,-27.05,-27.05,-1.46
20.81,-32.96,-31.50,-32.96,-31.50,6.00,0.97,-26.96,-26.96,-1.46
21.02,-32.87,-31.41,-32.87,-31.42,6.00,0.99,-26.87,-26.87,-1.46
21.23,-32.79,-31.33,-32.79,-31.33,6.00,1.01,-26.79,-26.79,-1.46
21.44,-32.70,-31.24,-32.70,-31.24,6.00,1.03,-26.70,-26.70,-1.46
21.66,-32.61,-31.15,-32.61,-31.15,6.00,1.06,-26.61,-26.61,-1.46
21.87,-32.52,-31.06,-32.52,-31.06,6.00,1.08,-26.52,-26.52,-1.46
22.09,-32.43,-30.97,-32.43,-30.98,6.00,1.10,-26.43,-26.43,-1.46
22.31,-32.35,-30.89,-32.35,-30.89,6.00,1.13,-26.35,-26.35,-1.46
22.54,-32.26,-30.80,-32.26,-30.80,6.00,1.15,-26.26,-26.26,-1.46
22.76,-32.17,-30.71,-32.17,-30.71,6.00,1.18,-26.17,-26.17,-1.46
22.99,-32.08,-30.62,-32.08,-30.62,6.00,1.21,-26.08,-26.08,-1.46
23.22,-31.99,-30.53,-31.99,-30.54,6.00,1.23,-25.99,-25.99,-1.46
23.45,-31.91,-30.45,-31.91,-30.45,6.00,1.26,-25.91,-25.91,-1.46
23.69,-31.82,-30.36,-31.82,-30.36,6.00,1.29,-25.82,-25.82,-1.46
23.92,-31.73,-30.27,-31.73,-30.27,6.00,1.32,-25.73,-25.73,-1.46
24.16,-31.64,-30.18,-31.64,-30.18,6.00,1.35,-25.64,-25.64,-1.46
24.40,-31.55,-30.09,-31.55,-30.10,6.00,1.38,-25.55,-25.55,-1.46
24.65,-31.47,-30.01,-31.47,-30.01,6.00,1.41,-25.47,-25.47,-1.46
24.89,-31.38,-29.92,-31.38,-29.92,6.00,1.44,-25.38,-25.38,-1.46
25.14,-31.29,-29.83,-31.29,-29.83,6.00,1.47,-25.29,-25.29,-1.46
25.39,-31.20,-29.74,-31.20,-29.74,6.00,1.50,-25.20,-25.20,-1.46
25.65,-31.11,-29.65,-31.11,-29.66,6.00,1.54,-25.11,-25.11,-1.46
25.91,-31.03,-29.57,-31.03,-29.57,6.00,1.57,-25.03,-25.03,-1.46
26.16,-30.94,-29.48,-30.94,-29.48,6.00,1.61,-24.94,-24.94,-1.46
26.43,-30.85,-29.39,-30.85,-29.39,6.00,1.64,-24.85,-24.85,-1.46
26.69,-30.76,-29.30,-30.76,-29.30,6.00,1.68,-24.76,-24.76,-1.46
26.96,-30.67,-29.21,-30.68,-29.22,6.00,1.72,-24.67,-24.68,-1.46
27.23,-30.59,-29.13,-30.59,-29.13,6.00,1.76,-24.59,-24.59,-1.46
27.50,-30.50,-29.04,-30.50,-29.04,6.00,1.80,-24.50,-24.50,-1.46
27.77,-30.41,-28.95,-30.41,-28.95,6.00,1.84,-24.41,-24.41,-1.46
28.05,-30.32,-28.86,-30.32,-28.86,6.00,1.88,-24.32,-24.32,-1.46
28.33,-30.23,-28.77,-30.23,-28.78,6.00,1.93,-24.23,-24.23,-1.46
28.62,-30.15,-28.69,-30.15,-28.69,6.00,1.97,-24.15,-24.15,-1.46
28.90,-30.06,-28.60,-30.06,-28.60,6.00,2.01,-24.06,-24.06,-1.46
29.19,-29.97,-28.51,-29.97,-28.51,6.00,2.06,-23.97,-23.97,-1.46
29.48,-29.88,-28.42,-29.88,-28.42,6.00,2.11,-23.88,-23.88,-1.46
29.78,-29.79,-28.33,-29.80,-28.34,6.00,2.16,-23.79,-23.80,-1.46
30.08,-29.71,-28.25,-29.71,-28.25,6.00,2.21,-23.71,-23.71,-1.46
30.38,-29.62,-28.16,-29.62,-28.16,6.00,2.26,-23.62,-23.62,-1.46
30.68,-29.53,-28.07,-29.53,-28.07,6.00,2.31,-23.53,-23.53,-1.46
30.99,-29.44,-27.98,-29.44,-27.98,6.00,2.36,-23.44,-23.44,-1.46
31.30,-29.35,-27.89,-29.36,-27.90,6.00,2.42,-23.35,-23.36,-1.46
31.61,-29.27,-27.81,-29.27,-27.81,6.00,2.48,-23.27,-23.27,-1.46
31.93,-29.18,-27.72,-29.18,-27.72,6.00,2.53,-23.18,-23.18,-1.46
32.24,-29.09,-27.63,-29.09,-27.63,6.00,2.59,-23.09,-23.09,-1.46
32.57,-29.00,-27.54,-29.00,-27.55,6.00,2.65,-23.00,-23.00,-1.46
32.89,-28.92,-27.46,-28.92,-27.46,6.00,2.71,-22.92,-22.92,-1.46
33.22,-28.83,-27.37,-28.83,-27.37,6.00,2.78,-22.83,-22.83,-1.46
33.55,-28.74,-27.28,-28.74,-27.28,6.00,2.84,-22.74,-22.74,-1.46
33.89,-28.65,-27.19,-28.65,-27.19,6.00,2.91,-22.65,-22.65,-1.46
34.23,-28.56,-27.10,-28.56,-27.11,6.00,2.98,-22.56,-22.56,-1.46
34.57,-28.48,-27.02,-28.48,-27.02,6.00,3.05,-22.48,-22.48,-1.46
34.92,-28.39,-26.93,-28.39,-26.93,6.00,3.12,-22.39,-22.39,-1.46
35.27,-28.30,-26.84,-28.30,-26.84,6.00,3.19,-22.30,-22.30,-1.46
35.62,-28.21,-26.75,-28.21,-26.75,6.00,3.27,-22.21,-22.21,-1.46
35.97,-28.12,-26.66,-28.12,-26.67,6.00,3.34,-22.12,-22.12,-1.46
36.33,-28.04,-26.58,-28.04,-26.58,6.00,3.42,-22.04,-22.04,-1.46
36.70,-27.95,-26.49,-27.95,-26.49,6.00,3.50,-21.95,-21.95,-1.46
37.06,-27.86,-26.40,-27.86,-26.40,6.00,3.58,-21.86,-21.86,-1.46
37.43,-27.77,-26.31,-27.77,-26.31,6.00,3.66,-21.77,-21.77,-1.46
37.81,-27.68,-26.22,-27.68,-26.23,6.00,3.75,-21.68,-21.68,-1.46
38.19,-27.60,-26.14,-27.60,-26.14,6.00,3.84,-21.60,-21.60,-1.46
38.57,-27.51,-26.05,-27.51,-26.05,6.00,3.93,-21.51,-21.51,-1.46
38.95,-27.42,-25.96,-27.42,-25.96,6.00,4.02,-21.42,-21.42,-1.46
39.34,-27.33,-25.87,-27.33,-25.87,6.00,4.11,-21.33,-21.33,-1.46
39.74,-27.24,-25.78,-27.24,-25.79,6.00,4.21,-21.24,-21.24,-1.46
40.14,-27.16,-25.70,-27.16,-25.70,6.00,4.30,-21.16,-21.16,-1.46
40.54,-27.07,-25.61,-27.07,-25.61,6.00,4.40,-21.07,-21.07,-1.46
40.94,-26.98,-25.52,-26.98,-25.52,6.00,4.50,-20.98,-20.98,-1.46
41.35,-26.89,-25.43,-26.89,-25.43,6.00,4.60,-20.89,-20.89,-1.46
41.76,-26.80,-25.34,-26.80,-25.35,6.00,4.71,-20.80,-20.80,-1.46
42.18,-26.72,-25.26,-26.72,-25.26,6.00,4.81,-20.72,-20.72,-1.46
42.60,-26.63,-25.17,-26.63,-25.17,6.00,4.92,-20.63,-20.63,-1.46
43.03,-26.54,-25.08,-26.54,-25.08,6.00,5.03,-20.54,-20.54,-1.46
43.46,-26.45,-24.99,-26.45,-24.99,6.00,5.14,-20.45,-20.45,-1.46
43.90,-26.36,-24.90,-26.36,-24.91,6.00,5.25,-20.36,-20.36,-1.46
44.33,-26.28,-24.82,-26.28,-24.82,6.00,5.36,-20.28,-20.28,-1.46
44.78,-26.19,-24.73,-26.19,-24.73,6.00,5.48,-20.19,-20.19,-1.46
45.23,-26.10,-24.64,-26.10,-24.64,6.00,5.60,-20.10,-20.10,-1.46
45.68,-26.01,-24.55,-26.01,-24.55,6.00,5.71,-20.01,-20.01,-1.46
46.13,-25.92,-24.46,-25.92,-24.47,6.00,5.83,-19.92,-19.92,-1.46
46.60,-25.84,-24.38,-25.84,-24.38,6.00,5.95,-19.84,-19.84,-1.46
47.06,-25.75,-24.29,-25.75,-24.29,6.00,6.07,-19.75,-19.75,-1.46
47.53,-25.66,-24.20,-25.66,-24.20,6.00,6.19,-19.66,-19.66,-1.46
48.01,-25.57,-24.11,-25.57,-24.12,6.00,6.31,-19.57,-19.57,-1.46
48.49,-25.49,-24.03,-25.49,-24.03,6.00,6.42,-19.49,-19.49,-1.46
48.97,-25.40,-23.94,-25.40,-23.94,6.00,6.54,-19.40,-19.40,-1.46
49.46,-25.31,-23.85,-25.31,-23.85,6.00,6.66,-19.31,-19.31,-1.46
49.96,-25.22,-23.76,-25.22,-23.76,6.00,6.78,-19.22,-19.22,-1.46
50.46,-25.13,-23.67,-25.13,-23.68,6.00,6.89,-19.13,-19.13,-1.46
50.96,-25.05,-23.59,-25.05,-23.59,6.00,7.00,-19.05,-19.05,-1.46
51.47,-24.96,-23.50,-24.96,-23.50,6.00,7.11,-18.96,-18.96,-1.46
51.99,-24.87,-23.41,-24.87,-23.41,6.00,7.22,-18.87,-18.87,-1.46
52.51,-24.78,-23.32,-24.78,-23.32,6.00,7.32,-18.78,-18.78,-1.46
53.03,-24.69,-23.23,-24.70,-23.24,6.00,7.43,-18.69,-18.70,-1.46
53.56,-24.61,-23.15,-24.61,-23.15,6.00,7.52,-18.61,-18.61,-1.46
54.10,-24.52,-23.06,-24.52,-23.06,6.00,7.61,-18.52,-18.52,-1.46
54.64,-24.43,-22.97,-24.43,-22.97,6.00,7.70,-18.43,-18.43,-1.46
55.18,-24.34,-22.88,-24.34,-22.88,6.00,7.78,-18.34,-18.34,-1.46
55.74,-24.25,-22.79,-24.25,-22.80,6.00,7.86,-18.25,-18.25,-1.46
56.29,-24.17,-22.71,-24.17,-22.71,6.00,7.93,-18.17,-18.17,-1.46
56.86,-24.08,-22.62,-24.08,-22.62,6.00,7.99,-18.08,-18.08,-1.46
57.42,-23.99,-22.53,-23.99,-22.53,6.00,8.05,-17.99,-17.99,-1.46
58.00,-23.90,-22.44,-23.90,-22.44,6.00,8.10,-17.90,-17.90,-1.46
58.58,-23.81,-22.35,-23.81,-22.36,6.00,8.14,-17.81,-17.81,-1.46
59.16,-23.73,-22.27,-23.73,-22.27,6.00,8.17,-17.73,-17.73,-1.46
59.76,-23.64,-22.18,-23.64,-22.18,6.00,8.20,-17.64,-17.64,-1.46
60.35,-23.55,-22.09,-23.55,-22.09,6.00,8.22,-17.55,-17.55,-1.46
60.96,-23.46,-22.00,-23.46,-22.00,6.00,8.23,-17.46,-17.46,-1.46
61.57,-23.37,-21.91,-23.37,-21.92,6.00,8.23,-17.37,-17.37,-1.46
62.18,-23.29,-21.83,-23.29,-21.83,6.00,8.23,-17.29,-17.29,-1.46
62.80,-23.20,-21.74,-23.20,-21.74,6.00,8.21,-17.20,-17.20,-1.46
63.43,-23.11,-21.65,-23.11,-21.65,6.00,8.20,-17.11,-17.11,-1.46
64.07,-23.02,-21.56,-23.02,-21.56,6.00,8.17,-17.02,-17.02,-1.46
64.71,-22.93,-21.47,-22.93,-21.48,6.00,8.14,-16.93,-16.93,-1.46
65.35,-22.85,-21.39,-22.85,-21.39,6.00,8.10,-16.85,-16.85,-1.46
66.01,-22.76,-21.30,-22.76,-21.30,6.00,8.06,-16.76,-16.76,-1.46
66.67,-22.67,-21.21,-22.67,-21.21,6.00,8.01,-16.67,-16.67,-1.46
67.33,-22.58,-21.12,-22.58,-21.12,6.00,7.96,-16.58,-16.58,-1.46
68.01,-22.49,-21.03,-22.49,-21.04,6.00,7.90,-16.49,-16.49,-1.46
68.69,-22.41,-20.95,-22.41,-20.95,6.00,7.84,-16.41,-16.41,-1.46
69.37,-22.32,-20.86,-22.32,-20.86,6.00,7.78,-16.32,-16.32,-1.46
70.07,-22.23,-20.77,-22.23,-20.77,6.00,7.71,-16.23,-16.23,-1.46
70.77,-22.14,-20.68,-22.14,-20.68,6.00,7.64,-16.14,-16.14,-1.46
71.48,-22.05,-20.59,-22.05,-20.60,6.00,7.57,-16.05,-16.05,-1.46
72.19,-21.97,-20.51,-21.97,-20.51,6.00,7.50,-15.97,-15.97,-1.46
72.91,-21.88,-20.42,-21.88,-20.42,6.00,7.43,-15.88,-15.88,-1.46
73.64,-21.79,-20.33,-21.79,-20.33,6.00,7.35,-15.79,-15.79,-1.46
74.38,-21.70,-20.24,-21.70,-20.25,6.00,7.28,-15.70,-15.70,-1.46
75.12,-21.62,-20.16,-21.62,-20.16,6.00,7.20,-15.62,-15.62,-1.46
75.87,-21.53,-20.07,-21.53,-20.07,6.00,7.13,-15.53,-15.53,-1.46
76.63,-21.44,-19.98,-21.44,-19.98,6.00,7.06,-15.44,-15.44,-1.46
77.40,-21.35,-19.89,-21.35,-19.89,6.00,6.98,-15.35,-15.35,-1.46
78.17,-21.26,-19.80,-21.26,-19.81,6.00,6.91,-15.26,-15.26,-1.46
78.95,-21.18,-19.72,-21.18,-19.72,6.00,6.84,-15.18,-15.18,-1.46
79.74,-21.09,-19.63,-21.09,-19.63,6.00,6.77,-15.09,-15.09,-1.46
80.54,-21.00,-19.54,-21.00,-19.54,6.00,6.71,-15.00,-15.00,-1.46
81.35,-20.91,-19.45,-20.91,-19.45,6.00,6.64,-14.91,-14.91,-1.46
82.16,-20.82,-19.36,-20.82,-19.37,6.00,6.58,-14.82,-14.82,-1.46
82.98,-20.74,-19.28,-20.74,-19.28,6.00,6.52,-14.74,-14.74,-1.46
83.81,-20.65,-19.19,-20.65,-19.19,6.00,6.46,-14.65,-14.65,-1.46
84.65,-20.56,-19.10,-20.56,-19.10,6.00,6.40,-14.56,-14.56,-1.46
85.50,-20.47,-19.01,-20.47,-19.01,6.00,6.35,-14.47,-14.47,-1.46
86.35,-20.38,-18.92,-20.38,-18.93,6.00,6.30,-14.38,-14.38,-1.46
87.22,-20.30,-18.84,-20.30,-18.84,6.00,6.25,-14.30,-14.30,-1.46
88.09,-20.21,-18.75,-20.21,-18.75,6.00,6.20,-14.21,-14.21,-1.46
88.97,-20.12,-18.66,-20.12,-18.66,6.00,6.16,-14.12,-14.12,-1.46
89.86,-20.03,-18.57,-20.03,-18.57,6.00,6.12,-14.03,-14.03,-1.46
90.76,-19.94,-18.48,-19.94,-18.49,6.00,6.08,-13.94,-13.94,-1.46
91.66,-19.86,-18.40,-19.86,-18.40,6.00,6.05,-13.86,-13.86,-1.46
92.58,-19.77,-18.31,-19.77,-18.31,6.00,6.01,-13.77,-13.77,-1.46
93.51,-19.68,-18.22,-19.68,-18.22,6.00,5.98,-13.68,-13.68,-1.46
94.44,-19.59,-18.13,-19.59,-18.13,6.00,5.96,-13.59,-13.59,-1.46
95.39,-19.50,-18.04,-19.50,-18.05,6.00,5.93,-13.50,-13.50,-1.46
96.34,-19.42,-17.96,-19.42,-17.96,6.00,5.91,-13.42,-13.42,-1.46
97.30,-19.33,-17.87,-19.33,-17.87,6.00,5.89,-13.33,-13.33,-1.46
98.28,-19.24,-17.78,-19.24,-17.78,6.00,5.88,-13.24,-13.24,-1.46
99.26,-19.15,-17.69,-19.15,-17.69,6.00,5.86,-13.15,-13.15,-1.46
100.25,-19.06,-17.60,-19.06,-17.61,6.00,5.85,-13.06,-13.06,-1.46
101.25,-18.98,-17.52,-18.98,-17.52,6.00,5.85,-12.98,-12.98,-1.46
102.27,-18.89,-17.43,-18.89,-17.43,6.00,5.84,-12.89,-12.89,-1.46
103.29,-18.80,-17.34,-18.80,-17.34,6.00,5.84,-12.80,-12.80,-1.46
104.32,-18.71,-17.25,-18.71,-17.25,6.00,5.84,-12.71,-12.71,-1.46
105.37,-18.62,-17.16,-18.62,-17.17,6.00,5.84,-12.62,-12.62,-1.46
106.42,-18.54,-17.08,-18.54,-17.08,6.00,5.84,-12.54,-12.54,-1.46
107.48,-18.45,-16.99,-18.45,-16.99,6.00,5.85,-12.45,-12.45,-1.46
108.56,-18.36,-16.90,-18.36,-16.90,6.00,5.86,-12.36,-12.36,-1.46
109.64,-18.27,-16.81,-18.27,-16.81,6.00,5.87,-12.27,-12.27,-1.46
110.74,-18.18,-16.72,-18.18,-16.73,6.00,5.88,-12.18,-12.18,-1.46
111.85,-18.10,-16.64,-18.10,-16.64,6.00,5.89,-12.10,-12.10,-1.46
112.97,-18.01,-16.55,-18.01,-16.55,6.00,5.91,-12.01,-12.01,-1.46
114.10,-17.92,-16.46,-17.92,-16.47,6.00,5.93,-11.92,-11.92,-1.46
115.24,-17.83,-16.37,-17.83,-16.38,6.00,5.94,-11.83,-11.83,-1.46
116.39,-17.75,-16.29,-17.75,-16.29,6.00,5.96,-11.75,-11.75,-1.46
117.55,-17.66,-16.20,-17.66,-16.20,6.00,5.98,-11.66,-11.66,-1.46
118.73,-17.57,-16.11,-17.57,-16.11,6.00,6.01,-11.57,-11.57,-1.46
119.92,-17.48,-16.02,-17.48,-16.02,6.00,6.03,-11.48,-11.48,-1.46
121.12,-17.39,-15.93,-17.40,-15.94,6.00,6.05,-11.39,-11.40,-1.46
122.33,-17.31,-15.85,-17.31,-15.85,6.00,6.08,-11.31,-11.31,-1.46
123.55,-17.22,-15.76,-17.22,-15.76,6.00,6.10,-11.22,-11.22,-1.46
124.79,-17.13,-15.67,-17.13,-15.67,6.00,6.13,-11.13,-11.13,-1.46
126.03,-17.04,-15.58,-17.04,-15.58,6.00,6.15,-11.04,-11.04,-1.46
127.29,-16.95,-15.49,-16.95,-15.50,6.00,6.17,-10.95,-10.95,-1.46
128.57,-16.87,-15.41,-16.87,-15.41,6.00,6.20,-10.87,-10.87,-1.46
129.85,-16.78,-15.32,-16.78,-15.32,6.00,6.22,-10.78,-10.78,-1.46
131.15,-16.69,-15.23,-16.69,-15.23,6.00,6.24,-10.69,-10.69,-1.46
132.46,-16.60,-15.14,-16.60,-15.14,6.00,6.26,-10.60,-10.60,-1.46
133.79,-16.51,-15.05,-16.51,-15.06,6.00,6.28,-10.51,-10.51,-1.46
135.12,-16.43,-14.97,-16.43,-14.97,6.00,6.30,-10.43,-10.43,-1.46
136.48,-16.34,-14.88,-16.34,-14.88,6.00,6.32,-10.34,-10.34,-1.46
137.84,-16.25,-14.79,-16.25,-14.79,6.00,6.33,-10.25,-10.25,-1.46
139.22,-16.16,-14.70,-16.16,-14.70,6.00,6.34,-10.16,-10.16,-1.46
140.61,-16.07,-14.61,-16.07,-14.62,6.00,6.35,-10.07,-10.07,-1.46
142.02,-15.99,-14.53,-15.99,-14.53,6.00,6.36,-9.99,-9.99,-1.46
143.44,-15.90,-14.44,-15.90,-14.44,6.00,6.37,-9.90,-9.90,-1.46
144.87,-15.81,-14.35,-15.81,-14.35,6.00,6.37,-9.81,-9.81,-1.46
146.32,-15.72,-14.26,-15.72,-14.26,6.00,6.37,-9.72,-9.72,-1.46
147.78,-15.63,-14.17,-15.63,-14.18,6.00,6.37,-9.63,-9.63,-1.46
149.26,-15.55,-14.09,-15.55,-14.09,6.00,6.36,-9.55,-9.55,-1.46
150.75,-15.46,-14.00,-15.46,-14.00,6.00,6.36,-9.46,-9.46,-1.46
152.26,-15.37,-13.91,-15.37,-13.91,6.00,6.35,-9.37,-9.37,-1.46
153.78,-15.28,-13.82,-15.28,-13.82,6.00,6.33,-9.28,-9.28,-1.46
155.32,-15.19,-13.73,-15.19,-13.74,6.00,6.32,-9.19,-9.19,-1.46
156.88,-15.11,-13.65,-15.11,-13.65,6.00,6.30,-9.11,-9.11,-1.46
158.44,-15.02,-13.56,-15.02,-13.56,6.00,6.28,-9.02,-9.02,-1.46
160.03,-14.93,-13.47,-14.93,-13.47,6.00,6.25,-8.93,-8.93,-1.46
161.63,-14.84,-13.38,-14.84,-13.38,6.00,6.23,-8.84,-8.84,-1.46
163.24,-14.75,-13.29,-14.75,-13.30,6.00,6.20,-8.75,-8.75,-1.46
164.88,-14.67,-13.21,-14.67,-13.21,6.00,6.17,-8.67,-8.67,-1.46
166.53,-14.58,-13.12,-14.58,-13.12,6.00,6.14,-8.58,-8.58,-1.46
168.19,-14.49,-13.03,-14.49,-13.03,6.00,6.10,-8.49,-8.49,-1.46
169.87,-14.40,-12.94,-14.40,-12.94,6.00,6.07,-8.40,-8.40,-1.46
171.57,-14.31,-12.85,-14.31,-12.86,6.00,6.03,-8.31,-8.31,-1.46
173.29,-14.23,-12.77,-14.23,-12.77,6.00,5.99,-8.23,-8.23,-1.46
175.02,-14.14,-12.68,-14.14,-12.68,6.00,5.95,-8.14,-8.14,-1.46
176.77,-14.05,-12.59,-14.05,-12.59,6.00,5.91,-8.05,-8.05,-1.46
178.54,-13.96,-12.50,-13.96,-12.51,6.00,5.87,-7.96,-7.96,-1.46
180.32,-13.88,-12.42,-13.88,-12.42,6.00,5.83,-7.88,-7.88,-1.46
182.13,-13.79,-12.33,-13.79,-12.33,6.00,5.79,-7.79,-7.79,-1.46
183.95,-13.70,-12.24,-13.70,-12.24,6.00,5.75,-7.70,-7.70,-1.46
185.79,-13.61,-12.15,-13.61,-12.15,6.00,5.71,-7.61,-7.61,-1.46
187.65,-13.52,-12.06,-13.52,-12.07,6.00,5.67,-7.52,-7.52,-1.46
189.52,-13.44,-11.98,-13.44,-11.98,6.00,5.63,-7.44,-7.44,-1.46
191.42,-13.35,-11.89,-13.35,-11.89,6.00,5.59,-7.35,-7.35,-1.46
193.33,-13.26,-11.80,-13.26,-11.80,6.00,5.55,-7.26,-7.26,-1.46
195.27,-13.17,-11.71,-13.17,-11.71,6.00,5.51,-7.17,-7.17,-1.46
197.22,-13.08,-11.62,-13.08,-11.63,6.00,5.47,-7.08,-7.08,-1.46
199.19,-13.00,-11.54,-13.00,-11.54,6.00,5.44,-7.00,-7.00,-1.46
201.18,-12.91,-11.45,-12.91,-11.45,6.00,5.40,-6.91,-6.91,-1.46
203.19,-12.82,-11.36,-12.82,-11.36,6.00,5.37,-6.82,-6.82,-1.46
205.23,-12.73,-11.27,-12.73,-11.27,6.00,5.34,-6.73,-6.73,-1.46
207.28,-12.64,-11.18,-12.64,-11.19,6.00,5.31,-6.64,-6.64,-1.46
209.35,-12.56,-11.10,-12.56,-11.10,6.00,5.28,-6.56,-6.56,-1.46
211.44,-12.47,-11.01,-12.47,-11.01,6.00,5.25,-6.47,-6.47,-1.46
213.56,-12.38,-10.92,-12.38,-10.92,6.00,5.23,-6.38,-6.38,-1.46
215.69,-12.29,-10.83,-12.29,-10.83,6.00,5.21,-6.29,-6.29,-1.46
217.85,-12.20,-10.74,-12.20,-10.75,6.00,5.19,-6.20,-6.20,-1.46
220.03,-12.12,-10.66,-12.12,-10.66,6.00,5.17,-6.12,-6.12,-1.46
222.23,-12.03,-10.57,-12.03,-10.57,6.00,5.15,-6.03,-6.03,-1.46
224.45,-11.94,-10.48,-11.94,-10.48,6.00,5.14,-5.94,-5.94,-1.46
226.70,-11.85,-10.39,-11.85,-10.39,6.00,5.13,-5.85,-5.85,-1.46
228.96,-11.76,-10.30,-11.76,-10.31,6.00,5.12,-5.76,-5.76,-1.46
231.25,-11.68,-10.22,-11.68,-10.22,6.00,5.11,-5.68,-5.68,-1.46
233.57,-11.59,-10.13,-11.59,-10.13,6.00,5.11,-5.59,-5.59,-1.46
235.90,-11.50,-10.04,-11.50,-10.04,6.00,5.11,-5.50,-5.50,-1.46
238.26,-11.41,-9.95,-11.41,-9.95,6.00,5.11,-5.41,-5.41,-1.46
240.64,-11.32,-9.86,-11.32,-9.87,6.00,5.11,-5.32,-5.32,-1.46
243.05,-11.24,-9.78,-11.24,-9.78,6.00,5.11,-5.24,-5.24,-1.46
245.48,-11.15,-9.69,-11.15,-9.69,6.00,5.12,-5.15,-5.15,-1.46
247.93,-11.06,-9.60,-11.06,-9.60,6.00,5.13,-5.06,-5.06,-1.46
250.41,-10.97,-9.51,-10.97,-9.51,6.00,5.15,-4.97,-4.97,-1.46
252.92,-10.88,-9.42,-10.88,-9.43,6.00,5.16,-4.88,-4.88,-1.46
255.45,-10.80,-9.34,-10.80,-9.34,6.00,5.18,-4.80,-4.80,-1.46
258.00,-10.71,-9.25,-10.71,-9.25,6.00,5.20,-4.71,-4.71,-1.46
260.58,-10.62,-9.16,-10.62,-9.16,6.00,5.23,-4.62,-4.62,-1.46
263.19,-10.53,-9.07,-10.53,-9.08,6.00,5.25,-4.53,-4.53,-1.46
265.82,-10.45,-8.99,-10.45,-8.99,6.00,5.28,-4.45,-4.45,-1.46
268.48,-10.37,-8.91,-10.37,-8.91,6.00,5.31,-4.37,-4.37,-1.46
271.16,-10.29,-8.83,-10.29,-8.83,6.00,5.34,-4.29,-4.29,-1.46
273.87,-10.21,-8.75,-10.21,-8.75,6.00,5.38,-4.21,-4.21,-1.46
276.61,-10.13,-8.67,-10.13,-8.67,6.00,5.42,-4.13,-4.13,-1.46
279.38,-10.05,-8.59,-10.05,-8.59,6.00,5.46,-4.05,-4.05,-1.46
282.17,-9.97,-8.51,-9.97,-8.52,6.00,5.50,-3.97,-3.97,-1.46
284.99,-9.90,-8.44,-9.90,-8.44,6.00,5.55,-3.90,-3.90,-1.46
287.84,-9.83,-8.37,-9.83,-8.38,6.00,5.59,-3.83,-3.83,-1.46
290.72,-9.77,-8.31,-9.76,-8.31,6.00,5.64,-3.77,-3.76,-1.46
293.63,-9.69,-8.23,-9.69,-8.24,6.00,5.69,-3.69,-3.69,-1.46
296.57,-9.62,-8.16,-9.62,-8.17,6.00,5.74,-3.62,-3.62,-1.46
299.53,-9.56,-8.10,-9.56,-8.10,6.00,5.80,-3.56,-3.56,-1.46
302.53,-9.50,-8.04,-9.50,-8.04,6.00,5.85,-3.50,-3.50,-1.46
305.55,-9.45,-7.99,-9.45,-7.99,6.00,5.91,-3.45,-3.45,-1.46
308.61,-9.40,-7.94,-9.40,-7.95,6.00,5.96,-3.40,-3.40,-1.46
311.69,-9.36,-7.90,-9.36,-7.90,6.00,6.02,-3.36,-3.36,-1.46
314.81,-9.32,-7.86,-9.32,-7.86,6.00,6.08,-3.32,-3.32,-1.46
317.96,-9.28,-7.82,-9.28,-7.82,6.00,6.14,-3.28,-3.28,-1.46
321.14,-9.24,-7.78,-9.24,-7.78,6.00,6.20,-3.24,-3.24,-1.46
324.35,-9.20,-7.74,-9.20,-7.75,6.00,6.26,-3.20,-3.20,-1.46
327.59,-9.17,-7.71,-9.17,-7.72,6.00,6.32,-3.17,-3.17,-1.46
330.87,-9.15,-7.69,-9.15,-7.69,6.00,6.37,-3.15,-3.15,-1.46
334.18,-9.13,-7.67,-9.13,-7.67,6.00,6.43,-3.13,-3.13,-1.46
337.52,-9.11,-7.65,-9.11,-7.65,6.00,6.48,-3.11,-3.11,-1.46
340.90,-9.08,-7.62,-9.08,-7.62,6.00,6.54,-3.08,-3.08,-1.46
344.30,-9.05,-7.59,-9.05,-7.60,6.00,6.59,-3.05,-3.05,-1.46
347.75,-9.03,-7.57,-9.03,-7.57,6.00,6.63,-3.03,-3.03,-1.46
351.23,-9.01,-7.55,-9.01,-7.56,6.00,6.68,-3.01,-3.01,-1.46
354.74,-9.00,-7.54,-8.99,-7.54,6.00,6.72,-3.00,-2.99,-1.46
358.28,-8.97,-7.51,-8.97,-7.52,6.00,6.76,-2.97,-2.97,-1.46
361.87,-8.95,-7.49,-8.95,-7.50,6.00,6.79,-2.95,-2.95,-1.46
365.49,-8.93,-7.47,-8.93,-7.47,6.00,6.81,-2.93,-2.93,-1.46
369.14,-8.91,-7.45,-8.91,-7.45,6.00,6.84,-2.91,-2.91,-1.46
372.83,-8.87,-7.41,-8.88,-7.42,6.00,6.85,-2.87,-2.88,-1.46
376.56,-8.84,-7.38,-8.84,-7.38,6.00,6.86,-2.84,-2.84,-1.46
380.33,-8.80,-7.34,-8.80,-7.34,6.00,6.86,-2.80,-2.80,-1.46
384.13,-8.76,-7.30,-8.76,-7.31,6.00,6.86,-2.76,-2.76,-1.46
387.97,-8.72,-7.26,-8.72,-7.26,6.00,6.85,-2.72,-2.72,-1.46
391.85,-8.67,-7.21,-8.67,-7.21,6.00,6.83,-2.67,-2.67,-1.46
395.77,-8.60,-7.14,-8.60,-7.14,6.00,6.81,-2.60,-2.60,-1.46
399.73,-8.52,-7.06,-8.52,-7.06,6.00,6.77,-2.52,-2.52,-1.46
403.72,-8.42,-6.96,-8.43,-6.97,6.00,6.73,-2.42,-2.43,-1.46
407.76,-8.33,-6.87,-8.33,-6.88,6.00,6.68,-2.33,-2.33,-1.46
411.84,-8.24,-6.78,-8.24,-6.78,6.00,6.63,-2.24,-2.24,-1.46
415.96,-8.15,-6.69,-8.15,-6.69,6.01,6.56,-2.14,-2.14,-1.46
420.12,-8.04,-6.58,-8.04,-6.58,6.02,6.49,-2.02,-2.03,-1.46
424.32,-7.93,-6.47,-7.93,-6.47,6.02,6.42,-1.91,-1.91,-1.46
428.56,-7.81,-6.35,-7.82,-6.36,6.02,6.33,-1.79,-1.80,-1.46
432.85,-7.70,-6.24,-7.70,-6.24,6.00,6.24,-1.70,-1.70,-1.46
