frequency,raw
20.00,8.53
20.20,8.56
20.40,8.60
20.61,8.63
20.81,8.67
21.02,8.70
21.23,8.74
21.44,8.77
21.66,8.82
21.87,8.86
22.09,8.90
22.31,8.94
22.54,8.98
22.76,9.01
22.99,9.04
23.22,9.07
23.45,9.10
23.69,9.13
23.92,9.16
24.16,9.19
24.40,9.21
24.65,9.24
24.89,9.26
25.14,9.28
25.39,9.30
25.65,9.32
25.91,9.33
26.16,9.35
26.43,9.37
26.69,9.38
26.96,9.40
27.23,9.42
27.50,9.44
27.77,9.47
28.05,9.49
28.33,9.51
28.62,9.53
28.90,9.54
29.19,9.56
29.48,9.57
29.78,9.60
30.08,9.62
30.38,9.63
30.68,9.65
30.99,9.66
31.30,9.67
31.61,9.69
31.93,9.70
32.24,9.72
32.57,9.73
32.89,9.75
33.22,9.78
33.55,9.80
33.89,9.82
34.23,9.83
34.57,9.84
34.92,9.84
35.27,9.85
35.62,9.86
35.97,9.87
36.33,9.87
36.70,9.88
37.06,9.88
37.43,9.88
37.81,9.88
38.19,9.88
38.57,9.88
38.95,9.88
39.34,9.88
39.74,9.88
40.14,9.88
40.54,9.88
40.94,9.88
41.35,9.88
41.76,9.88
42.18,9.88
42.60,9.88
43.03,9.88
43.46,9.88
43.90,9.88
44.33,9.88
44.78,9.88
45.23,9.88
45.68,9.87
46.13,9.86
46.60,9.84
47.06,9.83
47.53,9.83
48.01,9.83
48.49,9.83
48.97,9.79
49.46,9.76
49.96,9.73
50.46,9.74
50.96,9.74
51.47,9.75
51.99,9.76
52.51,9.76
53.03,9.77
53.56,9.75
54.10,9.73
54.64,9.71
55.18,9.70
55.74,9.68
56.29,9.67
56.86,9.65
57.42,9.64
58.00,9.63
58.58,9.63
59.16,9.61
59.76,9.60
60.35,9.59
60.96,9.58
61.57,9.57
62.18,9.55
62.80,9.54
63.43,9.53
64.07,9.52
64.71,9.50
65.35,9.48
66.01,9.46
66.67,9.45
67.33,9.44
68.01,9.43
68.69,9.41
69.37,9.40
70.07,9.39
70.77,9.37
71.48,9.36
72.19,9.34
72.91,9.33
73.64,9.31
74.38,9.30
75.12,9.28
75.87,9.26
76.63,9.23
77.40,9.20
78.17,9.18
78.95,9.15
79.74,9.12
80.54,9.09
81.35,9.06
82.16,9.04
82.98,9.03
83.81,9.02
84.65,8.99
85.50,8.97
86.35,8.94
87.22,8.92
88.09,8.89
88.97,8.86
89.86,8.83
90.76,8.80
91.66,8.77
92.58,8.75
93.51,8.72
94.44,8.70
95.39,8.67
96.34,8.64
97.30,8.61
98.28,8.58
99.26,8.55
100.25,8.52
101.25,8.49
102.27,8.46
103.29,8.42
104.32,8.39
105.37,8.36
106.42,8.32
107.48,8.29
108.56,8.25
109.64,8.22
110.74,8.18
111.85,8.15
112.97,8.12
114.10,8.09
115.24,8.05
116.39,8.01
117.55,7.97
118.73,7.93
119.92,7.89
121.12,7.85
122.33,7.81
123.55,7.78
124.79,7.75
126.03,7.72
127.29,7.69
128.57,7.65
129.85,7.62
131.15,7.58
132.46,7.55
133.79,7.51
135.12,7.48
136.48,7.46
137.84,7.43
139.22,7.40
140.61,7.36
142.02,7.32
143.44,7.27
144.87,7.23
146.32,7.18
147.78,7.13
149.26,7.08
150.75,7.03
152.26,6.99
153.78,6.94
155.32,6.90
156.88,6.84
158.44,6.79
160.03,6.74
161.63,6.69
163.24,6.65
164.88,6.61
166.53,6.56
168.19,6.52
169.87,6.48
171.57,6.44
173.29,6.40
175.02,6.36
176.77,6.32
178.54,6.28
180.32,6.23
182.13,6.19
183.95,6.14
185.79,6.09
187.65,6.04
189.52,6.00
191.42,5.95
193.33,5.91
195.27,5.87
197.22,5.82
199.19,5.77
201.18,5.73
203.19,5.68
205.23,5.63
207.28,5.58
209.35,5.53
211.44,5.48
213.56,5.42
215.69,5.37
217.85,5.32
220.03,5.27
222.23,5.23
224.45,5.19
226.70,5.14
228.96,5.09
231.25,5.04
233.57,4.99
235.90,4.94
238.26,4.89
240.64,4.84
243.05,4.79
245.48,4.74
247.93,4.69
250.41,4.64
252.92,4.58
255.45,4.53
258.00,4.47
260.58,4.41
263.19,4.35
265.82,4.29
268.48,4.23
271.16,4.17
273.87,4.11
276.61,4.05
279.38,4.00
282.17,3.95
284.99,3.91
287.84,3.88
290.72,3.84
293.63,3.78
296.57,3.73
299.53,3.67
302.53,3.61
305.55,3.55
308.61,3.50
311.69,3.45
314.81,3.40
317.96,3.35
321.14,3.30
324.35,3.25
327.59,3.20
330.87,3.15
334.18,3.09
337.52,3.04
340.90,2.98
344.30,2.93
347.75,2.88
351.23,2.82
354.74,2.77
358.28,2.71
361.87,2.66
365.49,2.60
369.14,2.56
372.83,2.51
376.56,2.46
380.33,2.41
384.13,2.37
387.97,2.33
391.85,2.28
395.77,2.24
399.73,2.19
403.72,2.14
407.76,2.10
411.84,2.04
415.96,1.99
420.12,1.94
424.32,1.89
428.56,1.85
432.85,1.81
437.18,1.77
441.55,1.74
445.96,1.70
450.42,1.67
454.93,1.63
459.48,1.59
464.07,1.55
468.71,1.52
473.40,1.47
478.13,1.42
482.91,1.37
487.74,1.32
492.62,1.29
497.55,1.26
502.52,1.22
507.55,1.19
512.62,1.16
517.75,1.12
522.93,1.09
528.16,1.05
533.44,1.01
538.77,0.97
544.16,0.93
549.60,0.88
555.10,0.85
560.65,0.82
566.25,0.79
571.92,0.75
577.64,0.72
583.41,0.69
589.25,0.65
595.14,0.62
601.09,0.58
607.10,0.55
613.17,0.51
619.30,0.48
625.50,0.46
631.75,0.43
638.07,0.40
644.45,0.38
650.89,0.35
657.40,0.32
663.98,0.29
670.62,0.27
677.32,0.24
684.10,0.22
690.94,0.19
697.85,0.17
704.83,0.15
711.87,0.13
718.99,0.12
726.18,0.10
733.44,0.08
740.78,0.07
748.19,0.05
755.67,0.04
763.23,0.03
770.86,0.03
778.57,0.03
786.35,0.03
794.22,0.03
802.16,0.04
810.18,0.04
818.28,0.04
826.46,0.04
834.73,0.04
843.08,0.04
851.51,0.04
860.02,0.04
868.62,0.04
877.31,0.03
886.08,0.02
894.94,0.01
903.89,-0.00
912.93,-0.01
922.06,-0.01
931.28,-0.01
940.59,-0.01
950.00,-0.00
959.50,0.00
969.09,0.01
978.78,0.01
988.57,0.00
998.46,0.00
1008.44,-0.00
1018.53,-0.01
1028.71,-0.01
1039.00,-0.01
1049.39,-0.01
1059.88,0.00
1070.48,0.00
1081.19,0.01
1092.00,0.02
1102.92,0.04
1113.95,0.05
1125.09,0.08
1136.34,0.11
1147.70,0.14
1159.18,0.17
1170.77,0.20
1182.48,0.24
1194.30,0.27
1206.25,0.30
1218.31,0.33
1230.49,0.36
1242.80,0.38
1255.22,0.41
1267.78,0.45
1280.45,0.48
1293.26,0.52
1306.19,0.55
1319.25,0.59
1332.45,0.65
1345.77,0.70
1359.23,0.75
1372.82,0.80
1386.55,0.86
1400.41,0.91
1414.42,0.96
1428.56,1.02
1442.85,1.07
1457.28,1.13
1471.85,1.18
1486.57,1.23
1501.43,1.28
1516.45,1.33
1531.61,1.38
1546.93,1.45
1562.40,1.52
1578.02,1.59
1593.80,1.67
1609.74,1.74
1625.84,1.82
1642.10,1.90
1658.52,2.01
1675.10,2.12
1691.85,2.23
1708.77,2.33
1725.86,2.43
1743.12,2.54
1760.55,2.64
1778.15,2.74
1795.94,2.84
1813.90,2.94
1832.03,3.05
1850.36,3.16
1868.86,3.27
1887.55,3.39
1906.42,3.53
1925.49,3.66
1944.74,3.80
1964.19,3.95
1983.83,4.11
2003.67,4.26
2023.71,4.41
2043.94,4.56
2064.38,4.71
2085.03,4.86
2105.88,4.99
2126.94,5.11
2148.20,5.24
2169.69,5.36
2191.38,5.49
2213.30,5.57
2235.43,5.65
2257.78,5.73
2280.36,5.78
2303.17,5.82
2326.20,5.86
2349.46,5.88
2372.95,5.85
2396.68,5.82
2420.65,5.79
2444.86,5.74
2469.31,5.64
2494.00,5.55
2518.94,5.46
2544.13,5.33
2569.57,5.18
2595.27,5.03
2621.22,4.89
2647.43,4.72
2673.90,4.55
2700.64,4.38
2727.65,4.21
2754.93,4.02
2782.48,3.82
2810.30,3.63
2838.40,3.45
2866.79,3.27
2895.46,3.09
2924.41,2.91
2953.65,2.75
2983.19,2.60
3013.02,2.44
3043.15,2.30
3073.58,2.17
3104.32,2.05
3135.36,1.92
3166.72,1.81
3198.38,1.73
3230.37,1.65
3262.67,1.56
3295.30,1.50
3328.25,1.46
3361.53,1.41
3395.15,1.36
3429.10,1.36
3463.39,1.36
3498.03,1.36
3533.01,1.37
3568.34,1.42
3604.02,1.46
3640.06,1.51
3676.46,1.60
3713.22,1.72
3750.36,1.83
3787.86,1.95
3825.74,2.13
3864.00,2.32
3902.64,2.50
3941.66,2.69
3981.08,2.87
4020.89,3.10
4061.10,3.37
4101.71,3.63
4142.73,4.00
4184.15,4.38
4226.00,4.77
4268.26,5.16
4310.94,5.56
4354.05,5.98
4397.59,6.40
4441.56,6.78
4485.98,7.16
4530.84,7.48
4576.15,7.77
4621.91,8.06
4668.13,8.25
4714.81,8.39
4761.96,8.53
4809.58,8.66
4857.67,8.57
4906.25,8.48
4955.31,8.38
5004.87,8.17
5054.91,7.87
5105.46,7.57
5156.52,7.15
5208.08,6.69
5260.16,6.15
5312.77,5.61
5365.89,5.11
5419.55,4.68
5473.75,4.35
5528.49,4.02
5583.77,3.87
5639.61,3.72
5696.00,3.58
5752.96,3.45
5810.49,3.34
5868.60,3.23
5927.28,3.12
5986.56,2.95
6046.42,2.79
6106.89,2.62
6167.96,2.46
6229.64,2.34
6291.93,2.23
6354.85,2.20
6418.40,2.25
6482.58,2.29
6547.41,2.33
6612.88,2.37
6679.01,2.49
6745.80,2.72
6813.26,2.94
6881.39,3.18
6950.21,3.56
7019.71,3.93
7089.91,4.45
7160.81,4.99
7232.41,5.55
7304.74,6.25
7377.79,6.95
7451.56,7.59
7526.08,8.22
7601.34,8.77
7677.35,9.27
7754.13,9.54
7831.67,9.80
7909.98,9.88
7989.08,9.76
8068.98,9.63
8149.67,9.39
8231.16,8.87
8313.47,8.30
8396.61,7.58
8480.57,6.74
8565.38,5.93
8651.03,5.06
8737.54,4.32
8824.92,3.59
8913.17,2.87
9002.30,2.22
9092.32,1.68
9183.25,1.17
9275.08,0.81
9367.83,0.44
9461.51,0.20
9556.12,-0.01
9651.68,-0.23
9748.20,-0.33
9845.68,-0.36
9944.14,-0.39
10043.58,-0.39
10144.02,-0.27
10245.46,-0.16
10347.91,-0.04
10451.39,0.09
10555.91,0.27
10661.46,0.45
10768.08,0.62
10875.76,0.79
10984.52,0.95
11094.36,1.10
11205.31,1.26
11317.36,1.41
11430.53,1.55
11544.84,1.70
11660.29,1.86
11776.89,2.08
11894.66,2.31
12013.60,2.53
12133.74,2.85
12255.08,3.16
12377.63,3.49
12501.41,3.82
12626.42,4.15
12752.68,4.43
12880.21,4.70
13009.01,4.96
13139.10,5.15
13270.49,5.34
13403.20,5.53
13537.23,5.72
13672.60,5.89
13809.33,6.07
13947.42,6.24
14086.90,6.45
14227.77,6.67
14370.04,6.90
14513.74,7.08
14658.88,7.18
14805.47,7.29
14953.52,7.39
15103.06,7.34
15254.09,7.17
15406.63,7.00
15560.70,6.63
15716.30,6.17
15873.47,5.60
16032.20,5.00
16192.52,4.31
16354.45,3.68
16517.99,3.12
16683.17,2.65
16850.01,2.21
17018.51,1.77
17188.69,1.30
17360.58,0.75
17534.18,0.04
17709.53,-0.73
17886.62,-1.58
18065.49,-2.44
18246.14,-3.21
18428.60,-3.87
18612.89,-4.29
18799.02,-4.72
18987.01,-4.94
19176.88,-5.14
19368.65,-5.35
19562.33,-5.56
19757.96,-5.76
19955.54,-5.97
