frequency,raw,error,smoothed,error_smoothed,equalization,fixed_band_eq,equalized_raw,equalized_smoothed,target
20.00,5.10,0.17,5.10,0.16,-0.17,-0.20,4.93,4.93,4.93
20.20,5.12,0.20,5.12,0.20,-0.20,-0.20,4.92,4.92,4.92
20.40,5.13,0.23,5.14,0.23,-0.23,-0.21,4.90,4.91,4.90
20.61,5.16,0.27,5.16,0.26,-0.26,-0.21,4.90,4.90,4.89
20.81,5.18,0.30,5.17,0.29,-0.29,-0.22,4.89,4.88,4.88
21.02,5.19,0.32,5.19,0.32,-0.32,-0.22,4.87,4.87,4.87
21.23,5.21,0.35,5.21,0.35,-0.35,-0.23,4.86,4.86,4.86
21.44,5.23,0.38,5.23,0.38,-0.38,-0.23,4.85,4.85,4.85
21.66,5.25,0.42,5.25,0.41,-0.41,-0.24,4.84,4.84,4.83
21.87,5.27,0.44,5.27,0.44,-0.44,-0.24,4.83,4.83,4.83
22.09,5.29,0.47,5.29,0.47,-0.46,-0.25,4.82,4.83,4.82
22.31,5.31,0.50,5.31,0.49,-0.49,-0.25,4.82,4.81,4.81
22.54,5.33,0.52,5.32,0.52,-0.52,-0.26,4.80,4.80,4.81
22.76,5.34,0.55,5.34,0.55,-0.55,-0.27,4.79,4.79,4.79
22.99,5.36,0.58,5.36,0.58,-0.58,-0.27,4.78,4.78,4.78
23.22,5.39,0.62,5.38,0.61,-0.61,-0.28,4.78,4.77,4.77
23.45,5.41,0.65,5.41,0.64,-0.64,-0.29,4.77,4.77,4.76
23.69,5.42,0.67,5.42,0.67,-0.67,-0.29,4.75,4.76,4.75
23.92,5.44,0.70,5.44,0.69,-0.69,-0.30,4.74,4.74,4.74
24.16,5.45,0.72,5.45,0.72,-0.72,-0.31,4.73,4.73,4.73
24.40,5.47,0.75,5.47,0.74,-0.75,-0.31,4.72,4.72,4.72
24.65,5.48,0.77,5.48,0.77,-0.78,-0.32,4.70,4.71,4.71
24.89,5.50,0.81,5.50,0.80,-0.80,-0.33,4.70,4.70,4.69
25.14,5.52,0.84,5.51,0.83,-0.83,-0.34,4.69,4.69,4.68
25.39,5.53,0.86,5.53,0.86,-0.86,-0.34,4.67,4.67,4.67
25.65,5.54,0.88,5.54,0.88,-0.89,-0.35,4.65,4.66,4.66
25.91,5.56,0.92,5.56,0.91,-0.91,-0.36,4.65,4.64,4.64
26.16,5.57,0.94,5.57,0.94,-0.94,-0.37,4.63,4.63,4.63
26.43,5.59,0.97,5.59,0.97,-0.97,-0.38,4.62,4.62,4.62
26.69,5.61,1.00,5.60,0.99,-0.99,-0.39,4.62,4.61,4.61
26.96,5.62,1.02,5.62,1.02,-1.01,-0.40,4.60,4.60,4.60
27.23,5.63,1.04,5.63,1.04,-1.04,-0.41,4.59,4.59,4.59
27.50,5.65,1.07,5.64,1.06,-1.06,-0.42,4.59,4.58,4.58
27.77,5.66,1.09,5.66,1.09,-1.09,-0.43,4.57,4.57,4.57
28.05,5.67,1.11,5.67,1.11,-1.11,-0.44,4.56,4.56,4.56
28.33,5.69,1.14,5.69,1.13,-1.14,-0.45,4.55,4.55,4.55
28.62,5.70,1.16,5.70,1.16,-1.16,-0.46,4.54,4.54,4.54
28.90,5.72,1.19,5.72,1.19,-1.19,-0.47,4.53,4.53,4.53
29.19,5.73,1.22,5.73,1.21,-1.21,-0.48,4.52,4.51,4.51
29.48,5.74,1.24,5.74,1.24,-1.24,-0.50,4.50,4.50,4.50
29.78,5.75,1.26,5.75,1.26,-1.26,-0.51,4.49,4.49,4.49
30.08,5.77,1.30,5.77,1.29,-1.29,-0.52,4.48,4.48,4.47
30.38,5.78,1.31,5.78,1.31,-1.31,-0.53,4.47,4.48,4.47
30.68,5.80,1.34,5.80,1.33,-1.33,-0.55,4.47,4.47,4.46
30.99,5.81,1.35,5.81,1.35,-1.35,-0.56,4.46,4.46,4.46
31.30,5.82,1.37,5.82,1.36,-1.37,-0.58,4.45,4.45,4.45
31.61,5.82,1.38,5.82,1.38,-1.38,-0.59,4.43,4.44,4.44
31.93,5.83,1.40,5.83,1.40,-1.40,-0.61,4.42,4.42,4.43
32.24,5.84,1.43,5.84,1.42,-1.43,-0.62,4.41,4.41,4.41
32.57,5.85,1.45,5.85,1.45,-1.45,-0.64,4.40,4.40,4.40
32.89,5.86,1.48,5.86,1.47,-1.47,-0.66,4.39,4.39,4.38
33.22,5.87,1.50,5.87,1.50,-1.50,-0.67,4.37,4.37,4.37
33.55,5.89,1.53,5.88,1.53,-1.53,-0.69,4.36,4.36,4.36
33.89,5.90,1.56,5.90,1.55,-1.55,-0.71,4.35,4.35,4.34
34.23,5.91,1.58,5.91,1.58,-1.58,-0.73,4.33,4.34,4.33
34.57,5.93,1.61,5.93,1.60,-1.60,-0.75,4.33,4.32,4.32
34.92,5.94,1.63,5.94,1.63,-1.63,-0.77,4.31,4.31,4.31
35.27,5.95,1.65,5.95,1.65,-1.65,-0.79,4.30,4.30,4.30
35.62,5.96,1.67,5.96,1.67,-1.67,-0.81,4.29,4.29,4.29
35.97,5.97,1.69,5.97,1.69,-1.69,-0.83,4.28,4.28,4.28
36.33,5.97,1.71,5.97,1.70,-1.70,-0.86,4.27,4.27,4.26
36.70,5.97,1.72,5.97,1.72,-1.72,-0.88,4.25,4.25,4.25
37.06,5.97,1.74,5.97,1.73,-1.74,-0.90,4.23,4.23,4.23
37.43,5.97,1.75,5.97,1.75,-1.75,-0.93,4.22,4.22,4.22
37.81,5.97,1.77,5.97,1.76,-1.76,-0.96,4.21,4.21,4.20
38.19,5.97,1.78,5.97,1.78,-1.77,-0.98,4.19,4.19,4.19
38.57,5.97,1.79,5.97,1.79,-1.79,-1.01,4.18,4.18,4.18
38.95,5.97,1.80,5.97,1.80,-1.80,-1.04,4.17,4.17,4.17
39.34,5.97,1.82,5.97,1.81,-1.81,-1.07,4.16,4.16,4.15
39.74,5.97,1.82,5.97,1.82,-1.82,-1.10,4.15,4.15,4.15
40.14,5.97,1.84,5.97,1.83,-1.84,-1.13,4.13,4.13,4.13
40.54,5.97,1.85,5.97,1.85,-1.85,-1.16,4.12,4.12,4.12
40.94,5.97,1.87,5.97,1.87,-1.87,-1.19,4.10,4.10,4.10
41.35,5.97,1.89,5.97,1.88,-1.88,-1.23,4.09,4.09,4.08
41.76,5.97,1.90,5.97,1.90,-1.90,-1.26,4.07,4.07,4.07
42.18,5.97,1.92,5.97,1.92,-1.91,-1.30,4.06,4.06,4.05
42.60,5.97,1.94,5.97,1.93,-1.93,-1.34,4.04,4.04,4.03
43.03,5.97,1.94,5.97,1.94,-1.95,-1.38,4.02,4.02,4.03
43.46,5.97,1.96,5.97,1.96,-1.96,-1.42,4.01,4.01,4.01
43.90,5.97,1.98,5.97,1.98,-1.98,-1.46,3.99,3.99,3.99
44.33,5.97,2.00,5.97,2.00,-1.99,-1.50,3.98,3.98,3.97
44.78,5.97,2.02,5.97,2.01,-2.01,-1.54,3.96,3.96,3.95
45.23,5.97,2.03,5.97,2.03,-2.02,-1.59,3.94,3.95,3.94
45.68,5.97,2.04,5.97,2.04,-2.04,-1.63,3.93,3.93,3.93
46.13,5.97,2.06,5.97,2.05,-2.06,-1.68,3.91,3.91,3.91
46.60,5.96,2.07,5.96,2.07,-2.07,-1.72,3.89,3.89,3.89
47.06,5.96,2.09,5.96,2.08,-2.09,-1.77,3.87,3.87,3.87
47.53,5.96,2.10,5.96,2.10,-2.10,-1.82,3.86,3.86,3.86
48.01,5.96,2.12,5.96,2.11,-2.11,-1.87,3.85,3.85,3.84
48.49,5.96,2.13,5.96,2.13,-2.13,-1.92,3.83,3.83,3.83
48.97,5.95,2.14,5.95,2.14,-2.14,-1.98,3.81,3.81,3.81
49.46,5.94,2.15,5.94,2.15,-2.14,-2.03,3.79,3.80,3.79
49.96,5.93,2.16,5.93,2.15,-2.15,-2.08,3.78,3.77,3.77
50.46,5.91,2.16,5.91,2.16,-2.16,-2.14,3.75,3.75,3.75
50.96,5.89,2.17,5.89,2.16,-2.16,-2.19,3.73,3.73,3.72
51.47,5.88,2.17,5.88,2.16,-2.16,-2.25,3.71,3.71,3.71
51.99,5.86,2.17,5.86,2.17,-2.17,-2.30,3.69,3.69,3.69
52.51,5.85,2.17,5.85,2.17,-2.18,-2.36,3.67,3.67,3.68
53.03,5.84,2.19,5.84,2.18,-2.19,-2.41,3.65,3.65,3.65
53.56,5.84,2.20,5.84,2.20,-2.20,-2.47,3.64,3.63,3.64
54.10,5.83,2.21,5.83,2.21,-2.22,-2.52,3.61,3.62,3.62
54.64,5.83,2.24,5.83,2.23,-2.23,-2.58,3.59,3.59,3.59
55.18,5.83,2.26,5.82,2.26,-2.25,-2.63,3.57,3.57,3.57
55.74,5.82,2.28,5.82,2.28,-2.27,-2.68,3.54,3.55,3.54
56.29,5.82,2.30,5.82,2.30,-2.29,-2.73,3.53,3.53,3.52
56.86,5.82,2.32,5.81,2.32,-2.31,-2.78,3.51,3.50,3.50
57.42,5.81,2.34,5.81,2.33,-2.33,-2.83,3.48,3.48,3.47
58.00,5.79,2.34,5.79,2.34,-2.34,-2.87,3.45,3.46,3.45
58.58,5.78,2.35,5.78,2.35,-2.35,-2.92,3.43,3.43,3.43
59.16,5.76,2.36,5.76,2.36,-2.36,-2.96,3.40,3.40,3.40
59.76,5.74,2.37,5.74,2.37,-2.37,-2.99,3.37,3.37,3.37
60.35,5.72,2.38,5.72,2.38,-2.38,-3.03,3.34,3.34,3.34
60.96,5.71,2.39,5.71,2.39,-2.39,-3.06,3.32,3.32,3.32
61.57,5.69,2.40,5.69,2.40,-2.40,-3.09,3.29,3.29,3.29
62.18,5.68,2.42,5.68,2.41,-2.41,-3.12,3.27,3.26,3.26
62.80,5.66,2.42,5.66,2.43,-2.43,-3.14,3.23,3.23,3.24
63.43,5.65,2.45,5.65,2.44,-2.44,-3.16,3.20,3.20,3.20
64.07,5.64,2.47,5.63,2.46,-2.46,-3.17,3.18,3.17,3.17
64.71,5.62,2.48,5.62,2.48,-2.48,-3.19,3.14,3.15,3.14
65.35,5.61,2.51,5.61,2.50,-2.49,-3.20,3.11,3.11,3.10
66.01,5.60,2.52,5.59,2.52,-2.51,-3.20,3.09,3.08,3.08
66.67,5.58,2.53,5.58,2.53,-2.53,-3.21,3.05,3.05,3.05
67.33,5.57,2.55,5.57,2.55,-2.55,-3.21,3.02,3.02,3.02
68.01,5.56,2.57,5.55,2.57,-2.58,-3.21,2.98,2.98,2.99
68.69,5.54,2.60,5.54,2.60,-2.60,-3.20,2.94,2.94,2.94
69.37,5.53,2.63,5.53,2.62,-2.62,-3.20,2.91,2.91,2.90
70.07,5.52,2.65,5.52,2.65,-2.64,-3.19,2.88,2.87,2.87
70.77,5.51,2.68,5.51,2.67,-2.67,-3.19,2.84,2.84,2.83
71.48,5.49,2.69,5.49,2.70,-2.69,-3.18,2.80,2.80,2.80
72.19,5.48,2.73,5.48,2.72,-2.72,-3.17,2.76,2.76,2.75
72.91,5.46,2.74,5.46,2.73,-2.74,-3.16,2.72,2.72,2.72
73.64,5.44,2.75,5.44,2.76,-2.76,-3.15,2.68,2.68,2.69
74.38,5.42,2.78,5.42,2.78,-2.79,-3.14,2.63,2.64,2.64
75.12,5.41,2.82,5.41,2.81,-2.81,-3.13,2.60,2.60,2.59
75.87,5.40,2.85,5.40,2.84,-2.84,-3.12,2.56,2.56,2.55
76.63,5.38,2.87,5.38,2.87,-2.86,-3.11,2.52,2.52,2.51
77.40,5.36,2.89,5.36,2.89,-2.89,-3.11,2.47,2.47,2.47
78.17,5.34,2.92,5.34,2.91,-2.91,-3.10,2.43,2.43,2.42
78.95,5.32,2.93,5.32,2.93,-2.94,-3.09,2.38,2.38,2.39
79.74,5.30,2.96,5.30,2.96,-2.96,-3.09,2.33,2.33,2.34
80.54,5.28,2.99,5.28,2.98,-2.99,-3.09,2.29,2.29,2.29
81.35,5.26,3.02,5.26,3.02,-3.02,-3.09,2.24,2.24,2.24
82.16,5.24,3.05,5.24,3.05,-3.04,-3.09,2.20,2.20,2.19
82.98,5.22,3.08,5.22,3.07,-3.07,-3.10,2.15,2.15,2.14
83.81,5.20,3.10,5.20,3.09,-3.09,-3.10,2.11,2.10,2.10
84.65,5.17,3.12,5.17,3.12,-3.12,-3.11,2.05,2.05,2.05
85.50,5.14,3.13,5.14,3.14,-3.14,-3.12,2.00,2.01,2.01
86.35,5.12,3.17,5.11,3.16,-3.16,-3.13,1.96,1.96,1.95
87.22,5.09,3.18,5.09,3.18,-3.18,-3.15,1.91,1.91,1.91
88.09,5.06,3.20,5.06,3.20,-3.20,-3.17,1.86,1.86,1.86
88.97,5.04,3.23,5.04,3.22,-3.22,-3.19,1.81,1.81,1.81
89.86,5.01,3.25,5.01,3.25,-3.25,-3.21,1.76,1.76,1.76
90.76,4.98,3.28,4.98,3.27,-3.27,-3.24,1.71,1.71,1.70
91.66,4.95,3.29,4.95,3.30,-3.30,-3.26,1.65,1.65,1.66
92.58,4.93,3.33,4.93,3.32,-3.32,-3.29,1.61,1.60,1.60
93.51,4.90,3.36,4.90,3.35,-3.35,-3.33,1.55,1.55,1.54
94.44,4.87,3.37,4.87,3.37,-3.37,-3.36,1.50,1.50,1.50
95.39,4.84,3.40,4.84,3.40,-3.39,-3.40,1.45,1.44,1.44
96.34,4.81,3.42,4.81,3.42,-3.42,-3.44,1.39,1.39,1.39
97.30,4.78,3.45,4.78,3.44,-3.44,-3.48,1.34,1.34,1.33
98.28,4.75,3.46,4.75,3.46,-3.46,-3.52,1.29,1.29,1.29
99.26,4.72,3.49,4.72,3.48,-3.48,-3.56,1.23,1.23,1.23
100.25,4.68,3.50,4.68,3.50,-3.51,-3.61,1.17,1.17,1.18
101.25,4.65,3.53,4.65,3.53,-3.53,-3.65,1.12,1.12,1.12
102.27,4.62,3.56,4.62,3.55,-3.56,-3.70,1.06,1.06,1.06
103.29,4.59,3.59,4.59,3.59,-3.58,-3.75,1.01,1.01,1.00
104.32,4.56,3.62,4.56,3.62,-3.61,-3.80,0.95,0.95,0.94
105.37,4.53,3.65,4.53,3.64,-3.63,-3.85,0.90,0.90,0.88
106.42,4.50,3.66,4.50,3.66,-3.66,-3.90,0.84,0.84,0.84
107.48,4.47,3.68,4.47,3.68,-3.68,-3.95,0.79,0.79,0.79
108.56,4.44,3.71,4.44,3.70,-3.71,-4.00,0.73,0.73,0.73
109.64,4.41,3.73,4.41,3.73,-3.73,-4.05,0.68,0.68,0.68
110.74,4.38,3.75,4.38,3.75,-3.75,-4.09,0.63,0.63,0.63
111.85,4.35,3.78,4.35,3.78,-3.77,-4.14,0.57,0.57,0.57
112.97,4.32,3.81,4.32,3.80,-3.80,-4.18,0.52,0.52,0.51
114.10,4.28,3.82,4.28,3.82,-3.82,-4.22,0.46,0.47,0.46
115.24,4.25,3.84,4.25,3.84,-3.84,-4.25,0.41,0.41,0.41
116.39,4.22,3.86,4.22,3.86,-3.86,-4.29,0.36,0.36,0.36
117.55,4.19,3.89,4.19,3.88,-3.88,-4.32,0.31,0.31,0.30
118.73,4.15,3.89,4.15,3.89,-3.90,-4.35,0.25,0.26,0.26
119.92,4.12,3.91,4.12,3.91,-3.91,-4.37,0.21,0.21,0.21
121.12,4.09,3.93,4.09,3.93,-3.93,-4.38,0.16,0.16,0.16
122.33,4.05,3.95,4.05,3.95,-3.95,-4.40,0.10,0.11,0.10
123.55,4.02,3.98,4.02,3.97,-3.96,-4.41,0.06,0.06,0.04
124.79,3.98,3.98,3.98,3.98,-3.97,-4.41,0.01,0.00,0.00
126.03,3.94,3.99,3.94,3.99,-3.99,-4.41,-0.05,-0.05,-0.05
127.29,3.90,4.00,3.90,3.99,-4.00,-4.40,-0.10,-0.10,-0.10
128.57,3.87,4.01,3.87,4.00,-4.01,-4.39,-0.14,-0.15,-0.14
129.85,3.83,4.01,3.83,4.01,-4.02,-4.37,-0.19,-0.19,-0.18
131.15,3.80,4.03,3.80,4.03,-4.03,-4.35,-0.23,-0.24,-0.23
132.46,3.76,4.05,3.76,4.05,-4.04,-4.32,-0.28,-0.28,-0.29
133.79,3.73,4.07,3.73,4.06,-4.05,-4.30,-0.32,-0.33,-0.34
135.12,3.69,4.07,3.69,4.07,-4.06,-4.26,-0.37,-0.37,-0.38
136.48,3.65,4.07,3.65,4.07,-4.07,-4.23,-0.42,-0.42,-0.42
137.84,3.62,4.08,3.61,4.07,-4.07,-4.19,-0.46,-0.46,-0.46
139.22,3.57,4.07,3.58,4.07,-4.08,-4.14,-0.51,-0.50,-0.50
140.61,3.54,4.08,3.54,4.08,-4.08,-4.10,-0.54,-0.54,-0.54
142.02,3.50,4.09,3.50,4.08,-4.08,-4.05,-0.58,-0.58,-0.59
143.44,3.46,4.09,3.46,4.09,-4.08,-4.00,-0.62,-0.62,-0.63
144.87,3.42,4.09,3.42,4.08,-4.08,-3.96,-0.66,-0.67,-0.67
146.32,3.38,4.08,3.38,4.08,-4.08,-3.91,-0.70,-0.70,-0.70
147.78,3.34,4.08,3.34,4.08,-4.08,-3.86,-0.74,-0.74,-0.74
149.26,3.31,4.09,3.31,4.08,-4.08,-3.81,-0.77,-0.77,-0.78
150.75,3.27,4.08,3.27,4.07,-4.07,-3.76,-0.80,-0.81,-0.81
152.26,3.22,4.06,3.22,4.06,-4.07,-3.71,-0.85,-0.84,-0.84
153.78,3.18,4.06,3.18,4.05,-4.06,-3.66,-0.88,-0.88,-0.88
155.32,3.13,4.05,3.13,4.05,-4.05,-3.61,-0.92,-0.92,-0.92
156.88,3.09,4.05,3.09,4.05,-4.04,-3.56,-0.95,-0.95,-0.96
158.44,3.05,4.04,3.05,4.04,-4.03,-3.52,-0.98,-0.98,-0.99
160.03,3.01,4.03,3.01,4.02,-4.02,-3.48,-1.01,-1.01,-1.02
161.63,2.96,4.01,2.96,4.00,-4.00,-3.43,-1.04,-1.04,-1.05
163.24,2.91,3.98,2.91,3.98,-3.99,-3.39,-1.08,-1.08,-1.07
164.88,2.87,3.97,2.87,3.96,-3.97,-3.36,-1.10,-1.11,-1.10
166.53,2.82,3.95,2.82,3.95,-3.95,-3.32,-1.13,-1.13,-1.13
168.19,2.78,3.94,2.78,3.94,-3.93,-3.29,-1.16,-1.15,-1.16
169.87,2.74,3.93,2.74,3.92,-3.91,-3.26,-1.18,-1.18,-1.19
171.57,2.69,3.90,2.69,3.90,-3.89,-3.23,-1.20,-1.21,-1.21
173.29,2.64,3.87,2.64,3.87,-3.87,-3.20,-1.23,-1.23,-1.23
175.02,2.59,3.85,2.59,3.85,-3.85,-3.18,-1.26,-1.26,-1.26
176.77,2.55,3.83,2.55,3.82,-3.82,-3.16,-1.27,-1.28,-1.28
178.54,2.50,3.80,2.50,3.80,-3.79,-3.14,-1.30,-1.30,-1.30
180.32,2.45,3.77,2.45,3.77,-3.77,-3.13,-1.32,-1.32,-1.32
182.13,2.40,3.74,2.40,3.74,-3.74,-3.11,-1.34,-1.34,-1.34
183.95,2.35,3.71,2.35,3.71,-3.71,-3.10,-1.36,-1.36,-1.36
185.79,2.30,3.68,2.30,3.67,-3.68,-3.09,-1.38,-1.38,-1.38
187.65,2.24,3.64,2.25,3.64,-3.65,-3.09,-1.41,-1.40,-1.40
189.52,2.20,3.62,2.20,3.61,-3.62,-3.08,-1.42,-1.42,-1.42
191.42,2.15,3.59,2.15,3.59,-3.58,-3.08,-1.43,-1.44,-1.44
193.33,2.10,3.56,2.10,3.55,-3.55,-3.08,-1.45,-1.45,-1.46
195.27,2.04,3.52,2.04,3.52,-3.52,-3.08,-1.48,-1.47,-1.48
197.22,1.99,3.48,1.99,3.48,-3.48,-3.08,-1.49,-1.49,-1.49
199.19,1.94,3.45,1.94,3.44,-3.44,-3.09,-1.51,-1.51,-1.51
201.18,1.89,3.41,1.89,3.41,-3.41,-3.09,-1.52,-1.52,-1.52
203.19,1.83,3.37,1.83,3.37,-3.37,-3.10,-1.54,-1.53,-1.54
205.23,1.78,3.33,1.78,3.33,-3.33,-3.11,-1.55,-1.55,-1.55
207.28,1.73,3.30,1.72,3.29,-3.29,-3.12,-1.56,-1.57,-1.57
209.35,1.67,3.25,1.67,3.25,-3.25,-3.13,-1.58,-1.58,-1.58
211.44,1.62,3.21,1.62,3.21,-3.21,-3.14,-1.59,-1.59,-1.59
213.56,1.57,3.17,1.57,3.17,-3.17,-3.14,-1.60,-1.60,-1.60
215.69,1.52,3.14,1.52,3.13,-3.13,-3.15,-1.61,-1.61,-1.62
217.85,1.47,3.09,1.47,3.09,-3.09,-3.16,-1.62,-1.62,-1.62
220.03,1.42,3.05,1.42,3.04,-3.04,-3.17,-1.62,-1.63,-1.63
222.23,1.36,3.00,1.36,3.00,-3.00,-3.17,-1.64,-1.64,-1.64
224.45,1.31,2.96,1.31,2.96,-2.96,-3.18,-1.65,-1.65,-1.65
226.70,1.26,2.92,1.26,2.91,-2.92,-3.18,-1.66,-1.66,-1.66
228.96,1.21,2.88,1.21,2.88,-2.88,-3.17,-1.67,-1.67,-1.67
231.25,1.16,2.84,1.16,2.84,-2.84,-3.17,-1.68,-1.68,-1.68
233.57,1.11,2.81,1.11,2.80,-2.80,-3.16,-1.69,-1.69,-1.70
235.90,1.06,2.76,1.06,2.76,-2.76,-3.15,-1.70,-1.70,-1.70
238.26,1.01,2.72,1.01,2.72,-2.72,-3.14,-1.71,-1.71,-1.71
240.64,0.96,2.68,0.96,2.68,-2.68,-3.12,-1.72,-1.72,-1.72
243.05,0.91,2.64,0.91,2.63,-2.63,-3.10,-1.72,-1.72,-1.73
245.48,0.86,2.59,0.86,2.59,-2.58,-3.07,-1.73,-1.73,-1.73
247.93,0.80,2.54,0.80,2.54,-2.54,-3.04,-1.74,-1.73,-1.74
250.41,0.75,2.49,0.75,2.49,-2.49,-3.00,-1.74,-1.74,-1.74
252.92,0.69,2.44,0.69,2.43,-2.44,-2.96,-1.75,-1.75,-1.75
255.45,0.63,2.38,0.63,2.38,-2.38,-2.91,-1.75,-1.75,-1.75
258.00,0.58,2.34,0.58,2.33,-2.33,-2.86,-1.75,-1.75,-1.76
260.58,0.52,2.28,0.52,2.28,-2.28,-2.80,-1.76,-1.76,-1.76
263.19,0.46,2.22,0.46,2.22,-2.22,-2.74,-1.76,-1.76,-1.76
265.82,0.40,2.17,0.40,2.16,-2.16,-2.68,-1.76,-1.76,-1.77
268.48,0.35,2.11,0.34,2.11,-2.11,-2.61,-1.76,-1.76,-1.76
271.16,0.28,2.05,0.28,2.05,-2.05,-2.53,-1.77,-1.77,-1.77
273.87,0.23,2.00,0.22,1.99,-1.99,-2.46,-1.76,-1.77,-1.77
276.61,0.16,1.93,0.16,1.93,-1.93,-2.38,-1.77,-1.77,-1.77
279.38,0.11,1.88,0.11,1.87,-1.87,-2.29,-1.77,-1.77,-1.77
282.17,0.05,1.82,0.05,1.82,-1.82,-2.21,-1.77,-1.77,-1.77
284.99,-0.01,1.76,-0.01,1.76,-1.76,-2.12,-1.77,-1.77,-1.77
287.84,-0.07,1.70,-0.07,1.70,-1.70,-2.02,-1.77,-1.77,-1.77
290.72,-0.13,1.64,-0.13,1.64,-1.64,-1.93,-1.77,-1.77,-1.77
293.63,-0.19,1.58,-0.19,1.58,-1.58,-1.83,-1.77,-1.77,-1.77
296.57,-0.25,1.52,-0.25,1.52,-1.52,-1.74,-1.77,-1.77,-1.77
299.53,-0.31,1.46,-0.31,1.46,-1.46,-1.64,-1.77,-1.77,-1.77
302.53,-0.36,1.41,-0.37,1.40,-1.40,-1.54,-1.76,-1.76,-1.77
305.55,-0.43,1.33,-0.42,1.34,-1.34,-1.43,-1.77,-1.76,-1.76
308.61,-0.48,1.28,-0.48,1.28,-1.28,-1.33,-1.76,-1.76,-1.76
311.69,-0.54,1.22,-0.54,1.21,-1.22,-1.23,-1.76,-1.76,-1.76
314.81,-0.60,1.16,-0.60,1.16,-1.16,-1.12,-1.76,-1.76,-1.76
317.96,-0.66,1.10,-0.66,1.10,-1.10,-1.02,-1.76,-1.76,-1.76
321.14,-0.72,1.04,-0.72,1.04,-1.04,-0.91,-1.76,-1.76,-1.76
324.35,-0.77,1.00,-0.77,0.99,-0.98,-0.81,-1.75,-1.76,-1.77
327.59,-0.83,0.93,-0.83,0.93,-0.92,-0.70,-1.75,-1.75,-1.76
330.87,-0.89,0.87,-0.89,0.86,-0.86,-0.59,-1.75,-1.75,-1.76
334.18,-0.95,0.80,-0.95,0.80,-0.80,-0.49,-1.75,-1.75,-1.75
337.52,-1.01,0.73,-1.01,0.73,-0.74,-0.38,-1.75,-1.75,-1.74
340.90,-1.06,0.68,-1.07,0.67,-0.68,-0.27,-1.74,-1.74,-1.74
344.30,-1.12,0.62,-1.12,0.61,-0.62,-0.16,-1.74,-1.74,-1.74
347.75,-1.18,0.55,-1.18,0.56,-0.56,-0.06,-1.74,-1.73,-1.73
351.23,-1.23,0.51,-1.24,0.50,-0.49,0.05,-1.72,-1.73,-1.74
354.74,-1.29,0.44,-1.29,0.44,-0.43,0.16,-1.72,-1.72,-1.73
358.28,-1.35,0.37,-1.35,0.38,-0.37,0.27,-1.72,-1.72,-1.72
361.87,-1.40,0.32,-1.40,0.31,-0.31,0.38,-1.71,-1.71,-1.72
365.49,-1.46,0.25,-1.46,0.24,-0.25,0.49,-1.71,-1.71,-1.71
369.14,-1.52,0.17,-1.52,0.18,-0.18,0.60,-1.70,-1.70,-1.69
372.83,-1.58,0.12,-1.58,0.11,-0.11,0.70,-1.70,-1.70,-1.70
376.56,-1.64,0.06,-1.64,0.05,-0.05,0.81,-1.69,-1.69,-1.70
380.33,-1.70,-0.01,-1.70,-0.01,0.02,0.92,-1.68,-1.68,-1.69
384.13,-1.76,-0.09,-1.76,-0.09,0.09,1.03,-1.67,-1.67,-1.67
387.97,-1.82,-0.15,-1.82,-0.16,0.15,1.14,-1.67,-1.67,-1.67
391.85,-1.88,-0.22,-1.88,-0.22,0.22,1.25,-1.66,-1.66,-1.66
395.77,-1.93,-0.29,-1.93,-0.29,0.29,1.35,-1.64,-1.65,-1.64
399.73,-1.99,-0.35,-1.99,-0.36,0.35,1.46,-1.64,-1.64,-1.64
403.72,-2.04,-0.42,-2.04,-0.42,0.42,1.57,-1.62,-1.62,-1.62
407.76,-2.09,-0.48,-2.09,-0.48,0.48,1.67,-1.61,-1.61,-1.61
411.84,-2.14,-0.54,-2.14,-0.54,0.55,1.78,-1.59,-1.59,-1.60
415.96,-2.19,-0.60,-2.19,-0.61,0.61,1.88,-1.58,-1.58,-1.59
420.12,-2.25,-0.67,-2.25,-0.68,0.68,1.98,-1.57,-1.57,-1.58
424.32,-2.31,-0.75,-2.31,-0.75,0.74,2.08,-1.57,-1.56,-1.56
428.56,-2.36,-0.81,-2.36,-0.81,0.81,2.18,-1.55,-1.55,-1.55
432.85,-2.41,-0.87,-2.41,-0.87,0.87,2.27,-1.54,-1.54,-1.54
437.18,-2.46,-0.93,-2.46,-0.94,0.94,2.37,-1.52,-1.53,-1.53
441.55,-2.52,-1.00,-2.52,-1.00,1.00,2.45,-1.52,-1.51,-1.52
445.96,-2.57,-1.07,-2.57,-1.07,1.07,2.54,-1.50,-1.50,-1.50
450.42,-2.62,-1.13,-2.63,-1.14,1.14,2.62,-1.48,-1.49,-1.49
454.93,-2.68,-1.20,-2.68,-1.20,1.20,2.70,-1.48,-1.47,-1.48
459.48,-2.73,-1.27,-2.73,-1.27,1.27,2.77,-1.46,-1.46,-1.46
464.07,-2.78,-1.34,-2.78,-1.34,1.34,2.83,-1.44,-1.44,-1.44
468.71,-2.84,-1.41,-2.84,-1.41,1.41,2.89,-1.43,-1.43,-1.43
473.40,-2.89,-1.47,-2.89,-1.48,1.48,2.94,-1.41,-1.41,-1.42
478.13,-2.95,-1.55,-2.95,-1.55,1.55,2.99,-1.40,-1.40,-1.40
482.91,-3.00,-1.62,-3.00,-1.62,1.63,3.03,-1.38,-1.37,-1.38
487.74,-3.05,-1.69,-3.05,-1.69,1.70,3.07,-1.35,-1.36,-1.36
492.62,-3.10,-1.76,-3.11,-1.77,1.77,3.09,-1.33,-1.34,-1.34
497.55,-3.16,-1.84,-3.16,-1.84,1.84,3.11,-1.33,-1.32,-1.32
502.52,-3.21,-1.91,-3.21,-1.91,1.90,3.12,-1.31,-1.30,-1.30
507.55,-3.25,-1.97,-3.26,-1.97,1.97,3.13,-1.28,-1.29,-1.28
512.62,-3.30,-2.03,-3.30,-2.03,2.03,3.13,-1.27,-1.27,-1.27
517.75,-3.35,-2.09,-3.35,-2.09,2.10,3.12,-1.26,-1.25,-1.26
522.93,-3.39,-2.15,-3.39,-2.15,2.16,3.10,-1.23,-1.24,-1.24
528.16,-3.44,-2.21,-3.44,-2.22,2.22,3.08,-1.22,-1.22,-1.23
533.44,-3.48,-2.28,-3.48,-2.28,2.28,3.05,-1.20,-1.20,-1.20
538.77,-3.52,-2.34,-3.52,-2.35,2.35,3.01,-1.17,-1.18,-1.18
544.16,-3.57,-2.41,-3.57,-2.41,2.41,2.97,-1.16,-1.16,-1.16
549.60,-3.61,-2.48,-3.61,-2.48,2.48,2.92,-1.13,-1.14,-1.13
555.10,-3.66,-2.54,-3.66,-2.54,2.54,2.87,-1.12,-1.12,-1.12
560.65,-3.70,-2.60,-3.70,-2.61,2.61,2.82,-1.09,-1.10,-1.10
566.25,-3.75,-2.67,-3.75,-2.67,2.67,2.76,-1.08,-1.08,-1.08
571.92,-3.79,-2.73,-3.79,-2.73,2.73,2.70,-1.06,-1.06,-1.06
577.64,-3.83,-2.79,-3.83,-2.79,2.79,2.63,-1.04,-1.04,-1.04
583.41,-3.87,-2.85,-3.87,-2.85,2.86,2.56,-1.02,-1.01,-1.02
589.25,-3.91,-2.91,-3.91,-2.91,2.92,2.49,-1.00,-1.00,-1.00
595.14,-3.95,-2.97,-3.95,-2.98,2.98,2.42,-0.98,-0.98,-0.98
601.09,-4.00,-3.04,-4.00,-3.04,3.03,2.35,-0.97,-0.96,-0.96
607.10,-4.04,-3.09,-4.04,-3.10,3.09,2.27,-0.95,-0.95,-0.95
613.17,-4.08,-3.15,-4.08,-3.15,3.15,2.20,-0.93,-0.93,-0.93
619.30,-4.11,-3.20,-4.12,-3.21,3.21,2.12,-0.90,-0.91,-0.91
625.50,-4.15,-3.26,-4.15,-3.26,3.27,2.04,-0.88,-0.88,-0.89
631.75,-4.19,-3.32,-4.19,-3.32,3.32,1.96,-0.87,-0.86,-0.87
638.07,-4.22,-3.37,-4.22,-3.38,3.38,1.89,-0.84,-0.84,-0.85
644.45,-4.26,-3.44,-4.26,-3.43,3.43,1.81,-0.83,-0.82,-0.82
650.89,-4.29,-3.48,-4.29,-3.48,3.49,1.73,-0.80,-0.81,-0.81
657.40,-4.33,-3.53,-4.33,-3.54,3.54,1.66,-0.79,-0.79,-0.80
663.98,-4.36,-3.58,-4.36,-3.59,3.58,1.58,-0.78,-0.78,-0.78
670.62,-4.40,-3.64,-4.39,-3.63,3.62,1.51,-0.78,-0.77,-0.76
677.32,-4.41,-3.66,-4.41,-3.67,3.66,1.43,-0.75,-0.75,-0.75
684.10,-4.42,-3.69,-4.42,-3.70,3.70,1.36,-0.73,-0.73,-0.73
690.94,-4.43,-3.72,-4.43,-3.72,3.72,1.29,-0.71,-0.71,-0.71
697.85,-4.44,-3.74,-4.44,-3.75,3.75,1.22,-0.69,-0.69,-0.70
