frequency,raw
20.00,-45.39
20.20,-44.59
20.40,-43.78
20.61,-43.03
20.81,-42.20
21.02,-41.42
21.23,-40.62
21.44,-39.82
21.66,-39.07
21.87,-38.22
22.09,-37.45
22.31,-36.64
22.54,-35.91
22.76,-35.08
22.99,-34.30
23.22,-33.51
23.45,-32.70
23.69,-31.95
23.92,-31.12
24.16,-30.33
24.40,-29.51
24.65,-28.76
24.89,-27.93
25.14,-27.16
25.39,-26.35
25.65,-25.59
25.91,-24.79
26.16,-23.91
26.43,-23.13
26.69,-22.26
26.96,-21.43
27.23,-20.58
27.50,-19.71
27.77,-18.74
28.05,-17.84
28.33,-16.97
28.62,-16.17
28.90,-15.29
29.19,-15.02
29.48,-14.74
29.78,-14.49
30.08,-14.23
30.38,-14.81
30.68,-15.75
30.99,-16.67
31.30,-22.01
31.61,-23.97
31.93,-25.03
32.24,-26.14
32.57,-26.48
32.89,-26.07
33.22,-25.67
33.55,-25.27
33.89,-24.89
34.23,-24.07
34.57,-23.21
34.92,-22.45
35.27,-21.72
35.62,-20.96
35.97,-20.22
36.33,-19.49
36.70,-18.76
37.06,-17.97
37.43,-17.19
37.81,-16.44
38.19,-15.66
38.57,-14.92
38.95,-14.21
39.34,-13.52
39.74,-12.96
40.14,-12.63
40.54,-12.30
40.94,-11.95
41.35,-11.62
41.76,-11.30
42.18,-11.05
42.60,-10.80
43.03,-10.57
43.46,-10.32
43.90,-10.06
44.33,-9.67
44.78,-9.17
45.23,-8.65
45.68,-8.13
46.13,-7.55
46.60,-6.98
47.06,-6.36
47.53,-5.77
48.01,-5.21
48.49,-4.64
48.97,-4.04
49.46,-3.50
49.96,-3.01
50.46,-2.49
50.96,-1.96
51.47,-1.48
51.99,-0.98
52.51,-0.48
53.03,0.02
53.56,0.51
54.10,0.99
54.64,1.47
55.18,1.96
55.74,2.53
56.29,3.20
56.86,3.84
57.42,4.40
58.00,4.62
58.58,4.86
59.16,5.11
59.76,5.33
60.35,5.34
60.96,5.11
61.57,4.85
62.18,4.57
62.80,4.32
63.43,4.06
64.07,3.93
64.71,3.84
65.35,3.75
66.01,3.67
66.67,3.58
67.33,3.94
68.01,4.51
68.69,5.10
69.37,5.71
70.07,6.18
70.77,6.62
71.48,7.05
72.19,7.51
72.91,7.84
73.64,7.75
74.38,7.67
75.12,7.59
75.87,7.51
76.63,7.43
77.40,7.19
78.17,6.90
78.95,6.60
79.74,6.31
80.54,6.02
81.35,5.97
82.16,6.39
82.98,6.82
83.81,7.24
84.65,7.63
85.50,8.12
86.35,8.70
87.22,9.23
88.09,9.78
88.97,10.09
89.86,10.38
90.76,10.67
91.66,10.97
92.58,11.24
93.51,10.75
94.44,10.02
95.39,9.33
96.34,8.59
97.30,7.83
98.28,7.09
99.26,6.32
100.25,5.60
101.25,5.15
102.27,5.44
103.29,5.76
104.32,6.09
105.37,6.40
106.42,6.71
107.48,7.05
108.56,7.34
109.64,7.66
110.74,7.94
111.85,8.24
112.97,8.54
114.10,8.97
115.24,9.67
116.39,10.38
117.55,11.08
118.73,11.08
119.92,9.75
121.12,9.04
122.33,8.49
123.55,7.92
124.79,7.39
126.03,6.82
127.29,5.68
128.57,5.35
129.85,5.77
131.15,6.21
132.46,6.65
133.79,7.09
135.12,7.55
136.48,7.97
137.84,7.80
139.22,7.61
140.61,7.42
142.02,7.22
143.44,7.03
144.87,6.83
146.32,6.55
147.78,6.10
149.26,5.65
150.75,5.20
152.26,4.75
153.78,3.87
155.32,2.89
156.88,2.40
158.44,2.57
160.03,2.76
161.63,2.96
163.24,3.15
164.88,3.34
166.53,3.54
168.19,5.33
169.87,6.61
171.57,7.17
173.29,7.75
175.02,8.33
176.77,8.55
178.54,8.59
180.32,8.62
182.13,8.66
183.95,8.69
185.79,8.73
187.65,8.75
189.52,8.46
191.42,8.17
193.33,7.87
195.27,7.58
197.22,7.29
199.19,7.00
201.18,7.38
203.19,7.75
205.23,8.13
207.28,8.50
209.35,8.88
211.44,8.17
213.56,7.33
215.69,6.49
217.85,5.93
220.03,5.58
222.23,5.22
224.45,4.87
226.70,4.76
228.96,5.10
231.25,5.44
233.57,5.78
235.90,6.12
238.26,6.46
240.64,6.80
243.05,6.83
245.48,6.74
247.93,6.65
250.41,6.57
252.92,6.48
255.45,6.40
258.00,6.31
260.58,6.21
263.19,6.11
265.82,6.01
268.48,5.90
271.16,5.80
273.87,5.70
276.61,5.57
279.38,5.41
282.17,5.24
284.99,5.08
287.84,4.92
290.72,4.76
293.63,4.59
296.57,4.86
299.53,5.21
302.53,5.55
305.55,5.89
308.61,6.23
311.69,6.57
314.81,6.89
317.96,7.15
321.14,7.42
324.35,7.68
327.59,7.94
330.87,8.20
334.18,8.46
337.52,8.51
340.90,8.44
344.30,8.36
347.75,8.28
351.23,8.21
354.74,8.13
358.28,7.87
361.87,7.47
365.49,7.08
369.14,6.69
372.83,6.29
376.56,5.94
380.33,5.78
384.13,5.63
387.97,5.47
391.85,5.31
395.77,5.15
399.73,5.03
403.72,5.06
407.76,5.10
411.84,5.13
415.96,5.17
420.12,5.21
424.32,5.24
428.56,5.02
432.85,4.58
437.18,4.13
441.55,3.68
445.96,3.23
450.42,2.79
454.93,2.36
459.48,1.93
464.07,1.50
468.71,1.07
473.40,0.97
478.13,0.92
482.91,0.86
487.74,0.81
492.62,0.75
497.55,0.70
502.52,0.59
507.55,0.35
512.62,0.11
517.75,-0.14
522.93,-0.38
528.16,-0.63
533.44,-0.87
538.77,-0.86
544.16,-0.71
549.60,-0.56
555.10,-0.41
560.65,-0.26
566.25,-0.03
571.92,0.48
577.64,0.98
583.41,1.49
589.25,1.99
595.14,2.35
601.09,2.71
607.10,3.07
613.17,3.42
619.30,3.78
625.50,3.99
631.75,4.09
638.07,4.19
644.45,4.29
650.89,4.39
657.40,4.49
663.98,4.59
670.62,4.62
677.32,4.65
684.10,4.68
690.94,4.72
697.85,4.75
704.83,4.78
711.87,4.82
718.99,4.88
726.18,4.94
733.44,5.00
740.78,5.07
748.19,5.13
755.67,5.19
763.23,5.25
770.86,5.31
778.57,5.37
786.35,5.43
794.22,5.49
802.16,5.55
810.18,5.60
818.28,5.52
826.46,5.44
834.73,5.36
843.08,5.28
851.51,5.20
860.02,5.11
868.62,4.93
877.31,4.63
886.08,4.33
894.94,4.04
903.89,3.74
912.93,3.44
922.06,3.06
931.28,2.66
940.59,2.26
950.00,1.86
959.50,1.46
969.09,1.11
978.78,0.76
988.57,0.40
998.46,0.05
1008.44,-0.30
1018.53,-0.63
1028.71,-0.95
1039.00,-1.27
1049.39,-1.59
1059.88,-1.91
1070.48,-2.22
1081.19,-2.50
1092.00,-2.74
1102.92,-2.98
1113.95,-3.22
1125.09,-3.46
1136.34,-3.70
1147.70,-3.89
1159.18,-3.81
1170.77,-3.73
1182.48,-3.65
1194.30,-3.57
1206.25,-3.49
1218.31,-3.24
1230.49,-2.74
1242.80,-2.25
1255.22,-1.76
1267.78,-1.27
1280.45,-0.79
1293.26,-0.32
1306.19,0.16
1319.25,0.64
1332.45,1.08
1345.77,1.52
1359.23,1.96
1372.82,2.40
1386.55,2.79
1400.41,3.12
1414.42,3.45
1428.56,3.78
1442.85,4.10
1457.28,4.34
1471.85,4.41
1486.57,4.49
1501.43,4.57
1516.45,4.64
1531.61,4.72
1546.93,4.80
1562.40,4.82
1578.02,4.79
1593.80,4.75
1609.74,4.72
1625.84,4.68
1642.10,4.64
1658.52,4.61
1675.10,4.54
1691.85,4.48
1708.77,4.41
1725.86,4.34
1743.12,4.27
1760.55,4.20
1778.15,4.12
1795.94,4.00
1813.90,3.87
1832.03,3.74
1850.36,3.61
1868.86,3.48
1887.55,3.36
1906.42,3.25
1925.49,3.16
1944.74,3.07
1964.19,2.98
1983.83,2.89
2003.67,2.80
2023.71,2.71
2043.94,2.68
2064.38,2.66
2085.03,2.63
2105.88,2.60
2126.94,2.58
2148.20,2.55
2169.69,2.47
2191.38,2.27
2213.30,2.07
2235.43,1.87
2257.78,1.68
2280.36,1.48
2303.17,1.20
2326.20,0.87
2349.46,0.53
2372.95,0.20
2396.68,-0.13
2420.65,-0.47
2444.86,-0.80
2469.31,-1.13
2494.00,-1.46
2518.94,-1.80
2544.13,-1.68
2569.57,-1.33
2595.27,-0.99
2621.22,-0.64
2647.43,-0.29
2673.90,-0.03
2700.64,0.22
2727.65,0.47
2754.93,0.72
2782.48,0.96
2810.30,0.90
2838.40,0.85
2866.79,0.79
2895.46,0.73
2924.41,0.68
2953.65,0.62
2983.19,0.90
3013.02,1.17
3043.15,1.45
3073.58,1.72
3104.32,2.00
3135.36,2.28
3166.72,2.05
3198.38,1.82
3230.37,1.60
3262.67,1.37
3295.30,1.14
3328.25,0.91
3361.53,0.79
3395.15,0.88
3429.10,0.97
3463.39,1.06
3498.03,1.15
3533.01,1.24
3568.34,1.44
3604.02,1.86
3640.06,2.29
3676.46,2.71
3713.22,3.13
3750.36,3.55
3787.86,3.22
3825.74,2.82
3864.00,2.42
3902.64,2.02
3941.66,1.61
3981.08,1.21
4020.89,1.24
4061.10,1.33
4101.71,1.41
4142.73,1.49
4184.15,1.58
4226.00,1.66
4268.26,1.72
4310.94,1.72
4354.05,1.72
4397.59,1.72
4441.56,1.73
4485.98,1.73
4530.84,1.73
4576.15,1.76
4621.91,1.80
4668.13,1.84
4714.81,1.88
4761.96,1.93
4809.58,1.97
4857.67,2.01
4906.25,1.95
4955.31,1.89
5004.87,1.83
5054.91,1.77
5105.46,1.71
5156.52,1.66
5208.08,1.74
5260.16,2.03
5312.77,2.33
5365.89,2.63
5419.55,2.93
5473.75,3.22
5528.49,3.50
5583.77,3.75
5639.61,3.99
5696.00,4.23
5752.96,4.48
5810.49,4.72
5868.60,4.89
5927.28,4.91
5986.56,4.93
6046.42,4.95
6106.89,4.97
6167.96,4.99
6229.64,5.01
6291.93,4.94
6354.85,4.84
6418.40,4.74
6482.58,4.63
6547.41,4.53
6612.88,4.43
6679.01,4.38
6745.80,4.39
6813.26,4.40
6881.39,4.41
6950.21,4.41
7019.71,4.42
7089.91,4.43
7160.81,4.46
7232.41,4.51
7304.74,4.56
7377.79,4.62
7451.56,4.67
7526.08,4.73
7601.34,4.78
7677.35,4.80
7754.13,4.82
7831.67,4.83
7909.98,4.84
7989.08,4.86
8068.98,4.87
8149.67,4.88
8231.16,4.88
8313.47,4.88
8396.61,4.88
8480.57,4.88
8565.38,4.88
8651.03,4.88
8737.54,4.89
8824.92,4.92
8913.17,4.94
9002.30,4.96
9092.32,4.98
9183.25,5.01
9275.08,5.03
9367.83,5.07
9461.51,5.12
9556.12,5.16
9651.68,5.21
9748.20,5.26
9845.68,5.30
9944.14,5.31
10043.58,5.26
10144.02,5.21
10245.46,5.15
10347.91,5.10
10451.39,5.05
10555.91,4.99
10661.46,4.90
10768.08,4.79
10875.76,4.68
10984.52,4.57
11094.36,4.47
11205.31,4.36
11317.36,4.25
11430.53,4.12
11544.84,3.99
11660.29,3.86
11776.89,3.73
11894.66,3.60
12013.60,3.48
12133.74,3.33
12255.08,3.17
12377.63,3.01
12501.41,2.85
12626.42,2.69
12752.68,2.52
12880.21,2.36
13009.01,2.18
13139.10,2.00
13270.49,1.81
13403.20,1.63
13537.23,1.45
13672.60,1.26
13809.33,1.07
13947.42,0.86
14086.90,0.64
14227.77,0.43
14370.04,0.21
14513.74,0.00
14658.88,-0.22
14805.47,-0.44
14953.52,-0.68
15103.06,-0.92
15254.09,-1.16
15406.63,-1.40
15560.70,-1.64
15716.30,-1.88
15873.47,-2.15
16032.20,-2.42
16192.52,-2.69
16354.45,-2.96
16517.99,-3.23
16683.17,-3.51
16850.01,-3.78
17018.51,-4.06
17188.69,-4.34
17360.58,-4.61
17534.18,-4.89
17709.53,-5.17
17886.62,-5.45
18065.49,-5.65
18246.14,-5.85
18428.60,-6.05
18612.89,-6.25
18799.02,-6.46
18987.01,-6.66
19176.88,-7.08
19368.65,-7.64
19562.33,-8.21
19757.96,-8.78
19955.54,-9.34
