frequency,raw
20.00,1.34
20.20,1.39
20.40,1.44
20.61,1.49
20.81,1.54
21.02,1.60
21.23,1.65
21.44,1.70
21.66,1.75
21.87,1.80
22.09,1.85
22.31,1.90
22.54,1.95
22.76,2.00
22.99,2.04
23.22,2.09
23.45,2.14
23.69,2.19
23.92,2.24
24.16,2.29
24.40,2.35
24.65,2.40
24.89,2.45
25.14,2.50
25.39,2.55
25.65,2.58
25.91,2.61
26.16,2.64
26.43,2.67
26.69,2.70
26.96,2.73
27.23,2.76
27.50,2.79
27.77,2.82
28.05,2.85
28.33,2.88
28.62,2.91
28.90,2.94
29.19,2.98
29.48,3.01
29.78,3.05
30.08,3.08
30.38,3.12
30.68,3.15
30.99,3.19
31.30,3.22
31.61,3.24
31.93,3.27
32.24,3.29
32.57,3.32
32.89,3.34
33.22,3.37
33.55,3.38
33.89,3.40
34.23,3.42
34.57,3.43
34.92,3.45
35.27,3.46
35.62,3.48
35.97,3.49
36.33,3.51
36.70,3.52
37.06,3.53
37.43,3.55
37.81,3.56
38.19,3.57
38.57,3.57
38.95,3.57
39.34,3.57
39.74,3.57
40.14,3.57
40.54,3.57
40.94,3.57
41.35,3.57
41.76,3.57
42.18,3.56
42.60,3.56
43.03,3.56
43.46,3.55
43.90,3.55
44.33,3.56
44.78,3.56
45.23,3.56
45.68,3.56
46.13,3.57
46.60,3.57
47.06,3.57
47.53,3.58
48.01,3.58
48.49,3.58
48.97,3.59
49.46,3.59
49.96,3.59
50.46,3.59
50.96,3.58
51.47,3.57
51.99,3.57
52.51,3.56
53.03,3.55
53.56,3.54
54.10,3.53
54.64,3.53
55.18,3.52
55.74,3.51
56.29,3.50
56.86,3.49
57.42,3.48
58.00,3.48
58.58,3.48
59.16,3.47
59.76,3.47
60.35,3.47
60.96,3.46
61.57,3.46
62.18,3.47
62.80,3.47
63.43,3.48
64.07,3.48
64.71,3.48
65.35,3.49
66.01,3.49
66.67,3.48
67.33,3.47
68.01,3.46
68.69,3.45
69.37,3.44
70.07,3.43
70.77,3.41
71.48,3.39
72.19,3.36
72.91,3.34
73.64,3.32
74.38,3.29
75.12,3.27
75.87,3.24
76.63,3.21
77.40,3.17
78.17,3.14
78.95,3.10
79.74,3.06
80.54,3.03
81.35,3.01
82.16,2.98
82.98,2.96
83.81,2.94
84.65,2.92
85.50,2.90
86.35,2.88
87.22,2.86
88.09,2.84
88.97,2.81
89.86,2.79
90.76,2.77
91.66,2.75
92.58,2.73
93.51,2.70
94.44,2.68
95.39,2.66
96.34,2.63
97.30,2.61
98.28,2.58
99.26,2.55
100.25,2.50
101.25,2.46
102.27,2.41
103.29,2.36
104.32,2.32
105.37,2.27
106.42,2.23
107.48,2.19
108.56,2.16
109.64,2.12
110.74,2.09
111.85,2.05
112.97,2.02
114.10,1.98
115.24,1.95
116.39,1.92
117.55,1.88
118.73,1.85
119.92,1.82
121.12,1.78
122.33,1.74
123.55,1.69
124.79,1.64
126.03,1.59
127.29,1.54
128.57,1.49
129.85,1.44
131.15,1.38
132.46,1.31
133.79,1.24
135.12,1.18
136.48,1.11
137.84,1.05
139.22,0.98
140.61,0.94
142.02,0.91
143.44,0.87
144.87,0.83
146.32,0.79
147.78,0.75
149.26,0.72
150.75,0.72
152.26,0.72
153.78,0.72
155.32,0.72
156.88,0.71
158.44,0.71
160.03,0.71
161.63,0.71
163.24,0.70
164.88,0.70
166.53,0.69
168.19,0.69
169.87,0.68
171.57,0.67
173.29,0.63
175.02,0.60
176.77,0.56
178.54,0.53
180.32,0.49
182.13,0.45
183.95,0.41
185.79,0.37
187.65,0.32
189.52,0.27
191.42,0.23
193.33,0.18
195.27,0.13
197.22,0.09
199.19,0.04
201.18,-0.01
203.19,-0.05
205.23,-0.10
207.28,-0.15
209.35,-0.19
211.44,-0.23
213.56,-0.27
215.69,-0.31
217.85,-0.35
220.03,-0.39
222.23,-0.43
224.45,-0.47
226.70,-0.52
228.96,-0.57
231.25,-0.62
233.57,-0.67
235.90,-0.71
238.26,-0.76
240.64,-0.81
243.05,-0.85
245.48,-0.89
247.93,-0.93
250.41,-0.97
252.92,-1.01
255.45,-1.05
258.00,-1.10
260.58,-1.15
263.19,-1.20
265.82,-1.25
268.48,-1.30
271.16,-1.35
273.87,-1.40
276.61,-1.45
279.38,-1.50
282.17,-1.56
284.99,-1.61
287.84,-1.66
290.72,-1.72
293.63,-1.77
296.57,-1.82
299.53,-1.86
302.53,-1.90
305.55,-1.94
308.61,-1.99
311.69,-2.03
314.81,-2.07
317.96,-2.11
321.14,-2.15
324.35,-2.18
327.59,-2.22
330.87,-2.26
334.18,-2.29
337.52,-2.33
340.90,-2.37
344.30,-2.41
347.75,-2.46
351.23,-2.50
354.74,-2.54
358.28,-2.58
361.87,-2.62
365.49,-2.66
369.14,-2.70
372.83,-2.74
376.56,-2.78
380.33,-2.82
384.13,-2.86
387.97,-2.90
391.85,-2.94
395.77,-2.99
399.73,-3.03
403.72,-3.07
407.76,-3.11
411.84,-3.16
415.96,-3.20
420.12,-3.24
424.32,-3.28
428.56,-3.32
432.85,-3.37
437.18,-3.41
441.55,-3.45
445.96,-3.49
450.42,-3.53
454.93,-3.57
459.48,-3.61
464.07,-3.64
468.71,-3.68
473.40,-3.72
478.13,-3.75
482.91,-3.77
487.74,-3.80
492.62,-3.83
497.55,-3.85
502.52,-3.88
507.55,-3.91
512.62,-3.94
517.75,-3.96
522.93,-3.99
528.16,-4.02
533.44,-4.05
538.77,-4.08
544.16,-4.11
549.60,-4.13
555.10,-4.15
560.65,-4.18
566.25,-4.20
571.92,-4.22
577.64,-4.24
583.41,-4.26
589.25,-4.27
595.14,-4.27
601.09,-4.28
607.10,-4.28
613.17,-4.29
619.30,-4.29
625.50,-4.29
631.75,-4.27
638.07,-4.25
644.45,-4.24
650.89,-4.22
657.40,-4.20
663.98,-4.18
670.62,-4.16
677.32,-4.14
684.10,-4.13
690.94,-4.11
697.85,-4.09
704.83,-4.07
711.87,-4.05
718.99,-4.01
726.18,-3.96
733.44,-3.91
740.78,-3.86
748.19,-3.81
755.67,-3.76
763.23,-3.70
770.86,-3.62
778.57,-3.53
786.35,-3.43
794.22,-3.34
802.16,-3.25
810.18,-3.16
818.28,-3.05
826.46,-2.94
834.73,-2.82
843.08,-2.71
851.51,-2.59
860.02,-2.46
868.62,-2.32
877.31,-2.18
886.08,-2.03
894.94,-1.89
903.89,-1.74
912.93,-1.59
922.06,-1.43
931.28,-1.28
940.59,-1.13
950.00,-0.97
959.50,-0.81
969.09,-0.64
978.78,-0.45
988.57,-0.24
998.46,-0.03
1008.44,0.18
1018.53,0.39
1028.71,0.60
1039.00,0.80
1049.39,0.98
1059.88,1.17
1070.48,1.35
1081.19,1.51
1092.00,1.68
1102.92,1.85
1113.95,1.99
1125.09,2.08
1136.34,2.17
1147.70,2.26
1159.18,2.35
1170.77,2.44
1182.48,2.49
1194.30,2.53
1206.25,2.58
1218.31,2.62
1230.49,2.67
1242.80,2.71
1255.22,2.76
1267.78,2.81
1280.45,2.86
1293.26,2.91
1306.19,2.96
1319.25,3.01
1332.45,3.12
1345.77,3.38
1359.23,3.64
1372.82,3.95
1386.55,4.44
1400.41,4.94
1414.42,5.43
1428.56,5.87
1442.85,6.08
1457.28,6.29
1471.85,6.51
1486.57,6.72
1501.43,6.77
1516.45,6.78
1531.61,6.79
1546.93,6.80
1562.40,6.81
1578.02,6.82
1593.80,6.83
1609.74,6.78
1625.84,6.73
1642.10,6.67
1658.52,6.62
1675.10,6.56
1691.85,6.51
1708.77,6.45
1725.86,6.37
1743.12,6.28
1760.55,6.20
1778.15,6.12
1795.94,6.03
1813.90,5.95
1832.03,5.84
1850.36,5.73
1868.86,5.62
1887.55,5.50
1906.42,5.39
1925.49,5.28
1944.74,5.18
1964.19,5.08
1983.83,4.98
2003.67,4.88
2023.71,4.78
2043.94,4.68
2064.38,4.59
2085.03,4.51
2105.88,4.43
2126.94,4.34
2148.20,4.26
2169.69,4.18
2191.38,4.10
2213.30,4.05
2235.43,4.00
2257.78,3.94
2280.36,3.89
2303.17,3.84
2326.20,3.79
2349.46,3.75
2372.95,3.73
2396.68,3.71
2420.65,3.69
2444.86,3.67
2469.31,3.65
2494.00,3.63
2518.94,3.67
2544.13,3.76
2569.57,3.85
2595.27,3.95
2621.22,4.04
2647.43,4.32
2673.90,4.63
2700.64,5.08
2727.65,5.60
2754.93,6.08
2782.48,6.39
2810.30,6.70
2838.40,6.95
2866.79,7.19
2895.46,7.40
2924.41,7.59
2953.65,7.78
2983.19,7.97
3013.02,8.10
3043.15,8.18
3073.58,8.25
3104.32,8.33
3135.36,8.40
3166.72,8.47
3198.38,8.55
3230.37,8.61
3262.67,8.66
3295.30,8.71
3328.25,8.76
3361.53,8.81
3395.15,8.86
3429.10,8.91
3463.39,8.88
3498.03,8.82
3533.01,8.77
3568.34,8.72
3604.02,8.66
3640.06,8.61
3676.46,8.57
3713.22,8.53
3750.36,8.49
3787.86,8.45
3825.74,8.41
3864.00,8.37
3902.64,8.38
3941.66,8.46
3981.08,8.54
4020.89,8.62
4061.10,8.70
4101.71,8.78
4142.73,8.86
4184.15,8.82
4226.00,8.70
4268.26,8.58
4310.94,8.46
4354.05,8.33
4397.59,8.08
4441.56,7.80
4485.98,7.44
4530.84,7.03
4576.15,6.49
4621.91,5.95
4668.13,5.40
4714.81,4.83
4761.96,4.26
4809.58,3.77
4857.67,3.28
4906.25,2.77
4955.31,2.24
5004.87,1.68
5054.91,1.13
5105.46,0.64
5156.52,0.19
5208.08,-0.28
5260.16,-0.71
5312.77,-1.08
5365.89,-1.45
5419.55,-1.82
5473.75,-1.31
5528.49,-0.94
5583.77,-0.63
5639.61,-0.27
5696.00,0.36
5752.96,1.05
5810.49,1.32
5868.60,1.51
5927.28,1.70
5986.56,1.88
6046.42,1.94
6106.89,1.96
6167.96,1.98
6229.64,2.00
6291.93,2.02
6354.85,2.04
6418.40,2.06
6482.58,2.06
6547.41,2.07
6612.88,2.07
6679.01,2.07
6745.80,2.08
6813.26,2.08
6881.39,2.07
6950.21,1.95
7019.71,1.82
7089.91,1.70
7160.81,1.57
7232.41,1.23
7304.74,0.80
7377.79,0.25
7451.56,-0.39
7526.08,-1.07
7601.34,-2.54
7677.35,-3.66
7754.13,-5.12
7831.67,-5.84
7909.98,-6.36
7989.08,-6.89
8068.98,-6.35
8149.67,-6.18
8231.16,-6.05
8313.47,-5.91
8396.61,-5.78
8480.57,-5.65
8565.38,-5.52
8651.03,-5.39
8737.54,-5.26
8824.92,-5.13
8913.17,-5.00
9002.30,-4.92
9092.32,-4.98
9183.25,-5.04
9275.08,-5.10
9367.83,-5.16
9461.51,-5.22
9556.12,-5.28
9651.68,-5.35
9748.20,-5.43
9845.68,-5.50
9944.14,-5.57
10043.58,-5.64
10144.02,-5.71
10245.46,-5.72
10347.91,-5.72
10451.39,-5.72
10555.91,-5.71
10661.46,-5.71
10768.08,-5.70
10875.76,-5.71
10984.52,-5.83
11094.36,-5.96
11205.31,-6.08
11317.36,-6.20
11430.53,-6.36
11544.84,-6.62
11660.29,-6.90
11776.89,-7.34
11894.66,-8.01
12013.60,-8.54
12133.74,-8.85
12255.08,-9.15
12377.63,-9.32
12501.41,-9.49
12626.42,-9.67
12752.68,-9.98
12880.21,-10.71
13009.01,-10.41
13139.10,-9.99
13270.49,-9.58
13403.20,-9.14
13537.23,-8.49
13672.60,-7.78
13809.33,-7.02
13947.42,-6.19
14086.90,-5.36
14227.77,-4.51
14370.04,-5.43
14513.74,-7.01
14658.88,-7.19
14805.47,-7.38
14953.52,-7.67
15103.06,-8.45
15254.09,-9.41
15406.63,-10.47
15560.70,-11.38
15716.30,-12.10
15873.47,-12.58
16032.20,-13.00
16192.52,-13.34
16354.45,-13.67
16517.99,-14.00
16683.17,-14.28
16850.01,-14.46
17018.51,-14.64
17188.69,-14.82
17360.58,-14.99
17534.18,-15.14
17709.53,-15.29
17886.62,-15.44
18065.49,-15.62
18246.14,-15.79
18428.60,-15.97
18612.89,-16.14
18799.02,-16.69
18987.01,-17.75
19176.88,-16.32
19368.65,-10.91
19562.33,-13.79
19757.96,-23.33
19955.54,-32.86
