frequency,raw
20.00,7.22
20.20,7.22
20.40,7.22
20.61,7.23
20.81,7.23
21.02,7.23
21.23,7.24
21.44,7.24
21.66,7.24
21.87,7.27
22.09,7.31
22.31,7.35
22.54,7.39
22.76,7.43
22.99,7.47
23.22,7.50
23.45,7.54
23.69,7.58
23.92,7.61
24.16,7.65
24.40,7.69
24.65,7.71
24.89,7.73
25.14,7.75
25.39,7.77
25.65,7.79
25.91,7.80
26.16,7.84
26.43,7.89
26.69,7.94
26.96,7.98
27.23,8.03
27.50,8.08
27.77,8.11
28.05,8.13
28.33,8.15
28.62,8.17
28.90,8.19
29.19,8.20
29.48,8.23
29.78,8.25
30.08,8.28
30.38,8.31
30.68,8.33
30.99,8.36
31.30,8.38
31.61,8.40
31.93,8.42
32.24,8.44
32.57,8.45
32.89,8.47
33.22,8.49
33.55,8.51
33.89,8.53
34.23,8.55
34.57,8.57
34.92,8.59
35.27,8.61
35.62,8.61
35.97,8.62
36.33,8.63
36.70,8.64
37.06,8.65
37.43,8.65
37.81,8.65
38.19,8.65
38.57,8.65
38.95,8.65
39.34,8.65
39.74,8.66
40.14,8.68
40.54,8.70
40.94,8.72
41.35,8.75
41.76,8.77
42.18,8.78
42.60,8.76
43.03,8.73
43.46,8.71
43.90,8.69
44.33,8.67
44.78,8.68
45.23,8.71
45.68,8.74
46.13,8.77
46.60,8.80
47.06,8.83
47.53,8.86
48.01,8.88
48.49,8.86
48.97,8.85
49.46,8.83
49.96,8.81
50.46,8.80
50.96,8.79
51.47,8.82
51.99,8.85
52.51,8.88
53.03,8.90
53.56,8.93
54.10,8.95
54.64,8.92
55.18,8.90
55.74,8.88
56.29,8.86
56.86,8.84
57.42,8.82
58.00,8.81
58.58,8.80
59.16,8.79
59.76,8.78
60.35,8.77
60.96,8.76
61.57,8.74
62.18,8.72
62.80,8.71
63.43,8.69
64.07,8.67
64.71,8.65
65.35,8.65
66.01,8.65
66.67,8.64
67.33,8.64
68.01,8.64
68.69,8.63
69.37,8.61
70.07,8.59
70.77,8.57
71.48,8.55
72.19,8.53
72.91,8.51
73.64,8.52
74.38,8.53
75.12,8.53
75.87,8.54
76.63,8.55
77.40,8.55
78.17,8.53
78.95,8.51
79.74,8.48
80.54,8.46
81.35,8.44
82.16,8.41
82.98,8.39
83.81,8.37
84.65,8.35
85.50,8.33
86.35,8.31
87.22,8.29
88.09,8.27
88.97,8.25
89.86,8.22
90.76,8.20
91.66,8.18
92.58,8.15
93.51,8.13
94.44,8.11
95.39,8.08
96.34,8.06
97.30,8.04
98.28,8.02
99.26,7.99
100.25,7.96
101.25,7.93
102.27,7.90
103.29,7.87
104.32,7.84
105.37,7.82
106.42,7.80
107.48,7.79
108.56,7.77
109.64,7.76
110.74,7.74
111.85,7.69
112.97,7.64
114.10,7.60
115.24,7.55
116.39,7.50
117.55,7.45
118.73,7.42
119.92,7.40
121.12,7.38
122.33,7.35
123.55,7.33
124.79,7.31
126.03,7.26
127.29,7.20
128.57,7.14
129.85,7.08
131.15,7.02
132.46,6.96
133.79,6.94
135.12,6.92
136.48,6.90
137.84,6.88
139.22,6.87
140.61,6.85
142.02,6.81
143.44,6.76
144.87,6.72
146.32,6.67
147.78,6.62
149.26,6.58
150.75,6.54
152.26,6.50
153.78,6.46
155.32,6.42
156.88,6.39
158.44,6.35
160.03,6.29
161.63,6.19
163.24,6.08
164.88,5.98
166.53,5.87
168.19,5.77
169.87,5.74
171.57,5.75
173.29,5.76
175.02,5.78
176.77,5.79
178.54,5.80
180.32,5.80
182.13,5.79
183.95,5.78
185.79,5.77
187.65,5.76
189.52,5.75
191.42,5.72
193.33,5.68
195.27,5.64
197.22,5.59
199.19,5.55
201.18,5.51
203.19,5.46
205.23,5.40
207.28,5.34
209.35,5.27
211.44,5.21
213.56,5.15
215.69,5.09
217.85,5.04
220.03,4.99
222.23,4.94
224.45,4.88
226.70,4.83
228.96,4.79
231.25,4.75
233.57,4.72
235.90,4.69
238.26,4.65
240.64,4.62
243.05,4.57
245.48,4.51
247.93,4.44
250.41,4.37
252.92,4.31
255.45,4.24
258.00,4.18
260.58,4.13
263.19,4.08
265.82,4.03
268.48,3.98
271.16,3.93
273.87,3.88
276.61,3.83
279.38,3.77
282.17,3.72
284.99,3.67
287.84,3.62
290.72,3.56
293.63,3.51
296.57,3.45
299.53,3.39
302.53,3.34
305.55,3.28
308.61,3.23
311.69,3.18
314.81,3.13
317.96,3.09
321.14,3.04
324.35,2.99
327.59,2.95
330.87,2.90
334.18,2.85
337.52,2.80
340.90,2.75
344.30,2.70
347.75,2.65
351.23,2.59
354.74,2.53
358.28,2.48
361.87,2.42
365.49,2.36
369.14,2.31
372.83,2.26
376.56,2.21
380.33,2.16
384.13,2.11
387.97,2.06
391.85,2.01
395.77,1.97
399.73,1.93
403.72,1.89
407.76,1.85
411.84,1.81
415.96,1.77
420.12,1.72
424.32,1.68
428.56,1.63
432.85,1.58
437.18,1.53
441.55,1.48
445.96,1.43
450.42,1.38
454.93,1.33
459.48,1.29
464.07,1.24
468.71,1.19
473.40,1.14
478.13,1.09
482.91,1.04
487.74,0.99
492.62,0.94
497.55,0.89
502.52,0.86
507.55,0.83
512.62,0.80
517.75,0.77
522.93,0.74
528.16,0.71
533.44,0.67
538.77,0.63
544.16,0.59
549.60,0.55
555.10,0.51
560.65,0.47
566.25,0.43
571.92,0.40
577.64,0.36
583.41,0.32
589.25,0.29
595.14,0.25
601.09,0.21
607.10,0.17
613.17,0.13
619.30,0.09
625.50,0.05
631.75,0.01
638.07,-0.01
644.45,-0.04
650.89,-0.07
657.40,-0.09
663.98,-0.12
670.62,-0.15
677.32,-0.17
684.10,-0.19
690.94,-0.21
697.85,-0.23
704.83,-0.25
711.87,-0.27
718.99,-0.30
726.18,-0.33
733.44,-0.35
740.78,-0.38
748.19,-0.41
755.67,-0.44
763.23,-0.46
770.86,-0.47
778.57,-0.48
786.35,-0.49
794.22,-0.50
802.16,-0.51
810.18,-0.50
818.28,-0.49
826.46,-0.48
834.73,-0.47
843.08,-0.46
851.51,-0.45
860.02,-0.44
868.62,-0.43
877.31,-0.43
886.08,-0.42
894.94,-0.41
903.89,-0.41
912.93,-0.37
922.06,-0.33
931.28,-0.29
940.59,-0.25
950.00,-0.21
959.50,-0.17
969.09,-0.13
978.78,-0.09
988.57,-0.05
998.46,-0.01
1008.44,0.03
1018.53,0.07
1028.71,0.15
1039.00,0.23
1049.39,0.31
1059.88,0.39
1070.48,0.48
1081.19,0.56
1092.00,0.67
1102.92,0.78
1113.95,0.90
1125.09,1.01
1136.34,1.12
1147.70,1.24
1159.18,1.36
1170.77,1.48
1182.48,1.60
1194.30,1.72
1206.25,1.83
1218.31,1.95
1230.49,2.09
1242.80,2.23
1255.22,2.37
1267.78,2.50
1280.45,2.64
1293.26,2.78
1306.19,2.92
1319.25,3.05
1332.45,3.18
1345.77,3.31
1359.23,3.44
1372.82,3.57
1386.55,3.71
1400.41,3.84
1414.42,3.98
1428.56,4.11
1442.85,4.25
1457.28,4.39
1471.85,4.52
1486.57,4.66
1501.43,4.79
1516.45,4.92
1531.61,5.06
1546.93,5.19
1562.40,5.32
1578.02,5.45
1593.80,5.58
1609.74,5.71
1625.84,5.84
1642.10,5.97
1658.52,6.11
1675.10,6.27
1691.85,6.42
1708.77,6.58
1725.86,6.74
1743.12,6.89
1760.55,7.05
1778.15,7.20
1795.94,7.35
1813.90,7.50
1832.03,7.65
1850.36,7.80
1868.86,7.95
1887.55,8.10
1906.42,8.25
1925.49,8.40
1944.74,8.54
1964.19,8.69
1983.83,8.84
2003.67,9.00
2023.71,9.16
2043.94,9.32
2064.38,9.48
2085.03,9.64
2105.88,9.77
2126.94,9.87
2148.20,9.97
2169.69,10.07
2191.38,10.17
2213.30,10.27
2235.43,10.34
2257.78,10.36
2280.36,10.38
2303.17,10.40
2326.20,10.42
2349.46,10.44
2372.95,10.43
2396.68,10.38
2420.65,10.33
2444.86,10.28
2469.31,10.23
2494.00,10.18
2518.94,10.05
2544.13,9.90
2569.57,9.75
2595.27,9.61
2621.22,9.46
2647.43,9.30
2673.90,9.14
2700.64,8.99
2727.65,8.83
2754.93,8.68
2782.48,8.53
2810.30,8.38
2838.40,8.23
2866.79,8.08
2895.46,7.94
2924.41,7.81
2953.65,7.67
2983.19,7.54
3013.02,7.41
3043.15,7.28
3073.58,7.15
3104.32,7.07
3135.36,6.99
3166.72,6.91
3198.38,6.83
3230.37,6.74
3262.67,6.70
3295.30,6.74
3328.25,6.79
3361.53,6.83
3395.15,6.88
3429.10,6.92
3463.39,6.97
3498.03,7.00
3533.01,7.04
3568.34,7.08
3604.02,7.12
3640.06,7.16
3676.46,7.20
3713.22,7.29
3750.36,7.38
3787.86,7.46
3825.74,7.55
3864.00,7.64
3902.64,7.72
3941.66,7.88
3981.08,8.06
4020.89,8.25
4061.10,8.43
4101.71,8.62
4142.73,8.80
4184.15,9.04
4226.00,9.29
4268.26,9.55
4310.94,9.80
4354.05,10.06
4397.59,10.32
4441.56,10.59
4485.98,10.86
4530.84,11.12
4576.15,11.39
4621.91,11.66
4668.13,11.78
4714.81,11.90
4761.96,12.02
4809.58,12.14
4857.67,12.27
4906.25,12.39
4955.31,12.38
5004.87,12.29
5054.91,12.20
5105.46,12.12
5156.52,12.03
5208.08,11.76
5260.16,11.29
5312.77,10.82
5365.89,10.35
5419.55,9.88
5473.75,9.41
5528.49,8.95
5583.77,8.49
5639.61,7.30
5696.00,5.17
5752.96,6.19
5810.49,7.47
5868.60,8.25
5927.28,7.87
5986.56,7.49
6046.42,7.11
6106.89,6.73
6167.96,6.36
6229.64,6.06
6291.93,5.90
6354.85,5.74
6418.40,5.57
6482.58,5.41
6547.41,5.25
6612.88,5.09
6679.01,5.11
6745.80,5.15
6813.26,5.20
6881.39,5.25
6950.21,5.30
7019.71,5.35
7089.91,5.60
7160.81,5.88
7232.41,6.16
7304.74,6.44
7377.79,6.72
7451.56,7.15
7526.08,7.70
7601.34,8.26
7677.35,8.84
7754.13,9.43
7831.67,10.12
7909.98,11.54
7989.08,12.97
8068.98,13.94
8149.67,14.77
8231.16,15.46
8313.47,15.98
8396.61,16.20
8480.57,15.46
8565.38,14.71
8651.03,13.97
8737.54,12.59
8824.92,10.44
8913.17,9.55
9002.30,8.66
9092.32,7.83
9183.25,7.31
9275.08,6.79
9367.83,6.27
9461.51,5.95
9556.12,5.72
9651.68,5.50
9748.20,5.27
9845.68,5.05
9944.14,4.93
10043.58,5.09
10144.02,5.26
10245.46,5.43
10347.91,5.59
10451.39,5.95
10555.91,6.43
10661.46,6.91
10768.08,7.52
10875.76,8.21
10984.52,8.91
11094.36,9.73
11205.31,10.54
11317.36,11.36
11430.53,11.12
11544.84,10.16
11660.29,9.19
11776.89,8.22
11894.66,6.69
12013.60,4.66
12133.74,3.24
12255.08,1.84
12377.63,0.58
12501.41,-0.16
12626.42,-0.68
12752.68,-1.00
12880.21,-1.32
13009.01,-1.63
13139.10,-1.54
13270.49,-1.07
13403.20,-0.59
13537.23,-0.12
13672.60,0.49
13809.33,1.25
13947.42,2.01
14086.90,2.09
14227.77,-1.90
14370.04,-5.89
14513.74,-2.15
14658.88,1.80
14805.47,2.95
14953.52,1.33
15103.06,-0.30
15254.09,-1.92
15406.63,-4.93
15560.70,-6.33
15716.30,-7.53
15873.47,-8.79
16032.20,-9.28
16192.52,-9.71
16354.45,-10.14
16517.99,-10.57
16683.17,-10.64
16850.01,-10.43
17018.51,-10.22
17188.69,-10.01
17360.58,-9.80
17534.18,-9.93
17709.53,-10.98
17886.62,-12.04
18065.49,-13.34
18246.14,-14.68
18428.60,-16.24
18612.89,-18.77
18799.02,-20.45
18987.01,-23.52
19176.88,-27.11
19368.65,-29.75
19562.33,-31.88
19757.96,-33.64
19955.54,-36.52
