frequency,raw,error,smoothed,error_smoothed,equalization,parametric_eq,fixed_band_eq,equalized_raw,equalized_smoothed,target
20.00,5.10,-1.57,5.10,-1.57,1.57,1.44,0.32,6.67,6.67,6.67
20.20,5.12,-1.55,5.12,-1.55,1.55,1.43,0.33,6.67,6.67,6.67
20.40,5.13,-1.54,5.14,-1.53,1.53,1.42,0.34,6.66,6.66,6.67
20.61,5.16,-1.50,5.16,-1.51,1.51,1.41,0.35,6.66,6.66,6.66
20.81,5.18,-1.48,5.17,-1.49,1.49,1.40,0.36,6.66,6.66,6.66
21.02,5.19,-1.47,5.19,-1.46,1.46,1.39,0.37,6.65,6.66,6.66
21.23,5.21,-1.45,5.21,-1.44,1.44,1.38,0.39,6.65,6.65,6.66
21.44,5.23,-1.42,5.23,-1.42,1.42,1.37,0.40,6.65,6.65,6.65
21.66,5.25,-1.40,5.25,-1.40,1.40,1.36,0.41,6.65,6.65,6.65
21.87,5.27,-1.39,5.27,-1.38,1.39,1.35,0.43,6.66,6.66,6.66
22.09,5.29,-1.37,5.29,-1.36,1.37,1.33,0.44,6.66,6.66,6.66
22.31,5.31,-1.34,5.31,-1.35,1.35,1.32,0.46,6.66,6.66,6.65
22.54,5.33,-1.33,5.32,-1.33,1.33,1.31,0.47,6.66,6.65,6.66
22.76,5.34,-1.32,5.34,-1.31,1.31,1.30,0.49,6.65,6.65,6.66
22.99,5.36,-1.30,5.36,-1.29,1.29,1.29,0.50,6.65,6.65,6.66
23.22,5.39,-1.26,5.38,-1.27,1.27,1.27,0.52,6.66,6.65,6.65
23.45,5.41,-1.24,5.41,-1.24,1.25,1.26,0.53,6.66,6.66,6.65
23.69,5.42,-1.23,5.42,-1.23,1.23,1.25,0.55,6.65,6.65,6.65
23.92,5.44,-1.21,5.44,-1.21,1.21,1.24,0.57,6.65,6.65,6.65
24.16,5.45,-1.20,5.45,-1.19,1.19,1.22,0.59,6.64,6.64,6.65
24.40,5.47,-1.17,5.47,-1.18,1.17,1.21,0.60,6.64,6.64,6.64
24.65,5.48,-1.16,5.48,-1.16,1.15,1.20,0.62,6.63,6.64,6.64
24.89,5.50,-1.14,5.50,-1.13,1.14,1.18,0.64,6.64,6.64,6.64
25.14,5.52,-1.11,5.51,-1.12,1.12,1.17,0.66,6.64,6.63,6.63
25.39,5.53,-1.10,5.53,-1.10,1.10,1.15,0.67,6.63,6.63,6.63
25.65,5.54,-1.08,5.54,-1.08,1.08,1.14,0.69,6.62,6.62,6.62
25.91,5.56,-1.06,5.56,-1.06,1.06,1.12,0.71,6.61,6.61,6.62
26.16,5.57,-1.04,5.57,-1.04,1.04,1.11,0.73,6.61,6.61,6.61
26.43,5.59,-1.02,5.59,-1.01,1.02,1.09,0.74,6.61,6.61,6.61
26.69,5.61,-0.99,5.60,-0.99,1.00,1.08,0.76,6.61,6.60,6.60
26.96,5.62,-0.97,5.62,-0.98,0.98,1.06,0.77,6.60,6.60,6.59
27.23,5.63,-0.97,5.63,-0.96,0.96,1.04,0.79,6.59,6.60,6.60
27.50,5.65,-0.94,5.64,-0.95,0.94,1.03,0.80,6.59,6.59,6.59
27.77,5.66,-0.93,5.66,-0.93,0.93,1.01,0.81,6.59,6.59,6.59
28.05,5.67,-0.92,5.67,-0.91,0.91,0.99,0.83,6.58,6.58,6.59
28.33,5.69,-0.89,5.69,-0.89,0.89,0.98,0.84,6.58,6.58,6.58
28.62,5.70,-0.87,5.70,-0.87,0.87,0.96,0.85,6.57,6.57,6.57
28.90,5.72,-0.85,5.72,-0.85,0.85,0.94,0.85,6.57,6.57,6.57
29.19,5.73,-0.83,5.73,-0.83,0.83,0.92,0.86,6.56,6.56,6.56
29.48,5.74,-0.81,5.74,-0.81,0.81,0.90,0.87,6.55,6.55,6.55
29.78,5.75,-0.79,5.75,-0.79,0.79,0.88,0.87,6.54,6.54,6.54
30.08,5.77,-0.76,5.77,-0.77,0.77,0.87,0.87,6.54,6.53,6.53
30.38,5.78,-0.75,5.78,-0.75,0.75,0.85,0.87,6.53,6.53,6.53
30.68,5.80,-0.73,5.80,-0.73,0.73,0.83,0.87,6.53,6.53,6.53
30.99,5.81,-0.71,5.81,-0.71,0.72,0.81,0.86,6.53,6.52,6.52
31.30,5.82,-0.70,5.82,-0.70,0.70,0.78,0.85,6.52,6.52,6.52
31.61,5.82,-0.69,5.82,-0.69,0.68,0.76,0.84,6.50,6.51,6.51
31.93,5.83,-0.67,5.83,-0.67,0.67,0.74,0.83,6.50,6.50,6.50
32.24,5.84,-0.65,5.84,-0.65,0.65,0.72,0.82,6.49,6.49,6.49
32.57,5.85,-0.63,5.85,-0.63,0.63,0.70,0.80,6.48,6.47,6.48
32.89,5.86,-0.61,5.86,-0.61,0.60,0.68,0.79,6.46,6.46,6.47
33.22,5.87,-0.58,5.87,-0.58,0.58,0.65,0.77,6.45,6.45,6.45
33.55,5.89,-0.55,5.88,-0.55,0.55,0.63,0.75,6.44,6.44,6.44
33.89,5.90,-0.53,5.90,-0.53,0.53,0.61,0.72,6.43,6.43,6.43
34.23,5.91,-0.50,5.91,-0.50,0.50,0.58,0.70,6.41,6.41,6.41
34.57,5.93,-0.47,5.93,-0.47,0.48,0.56,0.67,6.40,6.40,6.40
34.92,5.94,-0.45,5.94,-0.45,0.45,0.53,0.65,6.39,6.39,6.39
35.27,5.95,-0.43,5.95,-0.43,0.43,0.51,0.62,6.38,6.38,6.38
35.62,5.96,-0.41,5.96,-0.41,0.41,0.48,0.59,6.37,6.37,6.37
35.97,5.97,-0.38,5.97,-0.39,0.39,0.46,0.56,6.36,6.35,6.35
36.33,5.97,-0.37,5.97,-0.37,0.37,0.43,0.53,6.34,6.34,6.34
36.70,5.97,-0.35,5.97,-0.35,0.35,0.40,0.49,6.32,6.32,6.32
37.06,5.97,-0.33,5.97,-0.33,0.33,0.38,0.46,6.30,6.30,6.30
37.43,5.97,-0.31,5.97,-0.31,0.31,0.35,0.42,6.28,6.28,6.28
37.81,5.97,-0.29,5.97,-0.29,0.29,0.32,0.39,6.26,6.26,6.26
38.19,5.97,-0.27,5.97,-0.27,0.27,0.29,0.35,6.24,6.24,6.24
38.57,5.97,-0.25,5.97,-0.25,0.25,0.26,0.32,6.22,6.22,6.22
38.95,5.97,-0.23,5.97,-0.23,0.23,0.24,0.28,6.20,6.20,6.20
39.34,5.97,-0.21,5.97,-0.21,0.21,0.21,0.25,6.18,6.18,6.18
39.74,5.97,-0.19,5.97,-0.19,0.19,0.18,0.21,6.16,6.16,6.16
40.14,5.97,-0.17,5.97,-0.17,0.16,0.15,0.17,6.13,6.13,6.14
40.54,5.97,-0.14,5.97,-0.14,0.14,0.11,0.13,6.11,6.11,6.11
40.94,5.97,-0.12,5.97,-0.12,0.12,0.08,0.10,6.08,6.08,6.09
41.35,5.97,-0.09,5.97,-0.09,0.09,0.05,0.06,6.06,6.06,6.06
41.76,5.97,-0.06,5.97,-0.06,0.06,0.02,0.02,6.03,6.03,6.03
42.18,5.97,-0.03,5.97,-0.03,0.03,-0.01,-0.02,6.00,6.00,6.00
42.60,5.97,0.00,5.97,-0.00,0.01,-0.05,-0.05,5.97,5.97,5.97
43.03,5.97,0.02,5.97,0.02,-0.02,-0.08,-0.09,5.94,5.94,5.95
43.46,5.97,0.05,5.97,0.05,-0.06,-0.12,-0.13,5.91,5.91,5.92
43.90,5.97,0.08,5.97,0.08,-0.09,-0.15,-0.17,5.88,5.88,5.89
44.33,5.97,0.12,5.97,0.12,-0.12,-0.19,-0.20,5.85,5.85,5.85
44.78,5.97,0.15,5.97,0.15,-0.15,-0.22,-0.24,5.82,5.82,5.82
45.23,5.97,0.19,5.97,0.19,-0.19,-0.26,-0.28,5.78,5.78,5.78
45.68,5.97,0.22,5.97,0.22,-0.22,-0.29,-0.32,5.75,5.75,5.75
46.13,5.97,0.26,5.97,0.26,-0.26,-0.33,-0.36,5.71,5.71,5.71
46.60,5.96,0.28,5.96,0.29,-0.29,-0.37,-0.40,5.67,5.67,5.68
47.06,5.96,0.33,5.96,0.33,-0.33,-0.41,-0.43,5.63,5.63,5.63
47.53,5.96,0.36,5.96,0.36,-0.36,-0.45,-0.47,5.60,5.60,5.60
48.01,5.96,0.40,5.96,0.40,-0.40,-0.49,-0.51,5.56,5.56,5.56
48.49,5.96,0.43,5.96,0.43,-0.43,-0.53,-0.55,5.52,5.52,5.53
48.97,5.95,0.47,5.95,0.47,-0.47,-0.57,-0.59,5.48,5.48,5.48
49.46,5.94,0.51,5.94,0.51,-0.50,-0.61,-0.63,5.44,5.44,5.43
49.96,5.93,0.54,5.93,0.54,-0.54,-0.65,-0.67,5.39,5.39,5.39
50.46,5.91,0.57,5.91,0.57,-0.57,-0.69,-0.71,5.34,5.34,5.34
50.96,5.89,0.60,5.89,0.60,-0.60,-0.73,-0.75,5.29,5.29,5.29
51.47,5.88,0.63,5.88,0.63,-0.63,-0.78,-0.78,5.24,5.24,5.25
51.99,5.86,0.67,5.86,0.67,-0.67,-0.82,-0.82,5.19,5.19,5.19
52.51,5.85,0.70,5.85,0.71,-0.71,-0.86,-0.86,5.14,5.14,5.15
53.03,5.84,0.75,5.84,0.75,-0.75,-0.91,-0.90,5.09,5.09,5.09
53.56,5.84,0.79,5.84,0.79,-0.80,-0.95,-0.94,5.04,5.04,5.05
54.10,5.83,0.84,5.83,0.84,-0.85,-1.00,-0.98,4.98,4.99,4.99
54.64,5.83,0.90,5.83,0.90,-0.90,-1.05,-1.02,4.93,4.93,4.93
55.18,5.83,0.96,5.82,0.95,-0.95,-1.09,-1.06,4.87,4.87,4.87
55.74,5.82,1.01,5.82,1.01,-1.01,-1.14,-1.10,4.81,4.81,4.81
56.29,5.82,1.06,5.82,1.07,-1.07,-1.19,-1.14,4.75,4.76,4.76
56.86,5.82,1.13,5.81,1.12,-1.12,-1.24,-1.17,4.70,4.69,4.69
57.42,5.81,1.18,5.81,1.18,-1.17,-1.29,-1.21,4.63,4.63,4.63
58.00,5.79,1.22,5.79,1.23,-1.23,-1.34,-1.25,4.56,4.57,4.57
58.58,5.78,1.28,5.78,1.28,-1.28,-1.39,-1.29,4.50,4.50,4.50
59.16,5.76,1.33,5.76,1.33,-1.33,-1.44,-1.32,4.43,4.43,4.43
59.76,5.74,1.38,5.74,1.38,-1.38,-1.49,-1.36,4.36,4.36,4.36
60.35,5.72,1.43,5.72,1.43,-1.43,-1.54,-1.40,4.29,4.29,4.29
60.96,5.71,1.48,5.71,1.48,-1.48,-1.59,-1.43,4.23,4.22,4.23
61.57,5.69,1.53,5.69,1.53,-1.54,-1.64,-1.47,4.15,4.15,4.16
62.18,5.68,1.60,5.68,1.59,-1.59,-1.70,-1.50,4.08,4.08,4.08
62.80,5.66,1.64,5.66,1.65,-1.65,-1.75,-1.54,4.01,4.01,4.02
63.43,5.65,1.71,5.65,1.71,-1.71,-1.81,-1.57,3.94,3.94,3.94
64.07,5.64,1.78,5.63,1.78,-1.77,-1.86,-1.61,3.86,3.86,3.86
64.71,5.62,1.84,5.62,1.85,-1.84,-1.92,-1.64,3.78,3.79,3.78
65.35,5.61,1.91,5.61,1.91,-1.90,-1.97,-1.68,3.71,3.71,3.70
66.01,5.60,1.97,5.59,1.97,-1.96,-2.03,-1.71,3.63,3.63,3.63
66.67,5.58,2.02,5.58,2.03,-2.03,-2.08,-1.74,3.55,3.55,3.56
67.33,5.57,2.09,5.57,2.09,-2.10,-2.14,-1.78,3.47,3.47,3.48
68.01,5.56,2.16,5.55,2.16,-2.17,-2.20,-1.81,3.39,3.39,3.40
68.69,5.54,2.23,5.54,2.23,-2.23,-2.26,-1.85,3.30,3.31,3.31
69.37,5.53,2.30,5.53,2.31,-2.30,-2.31,-1.88,3.23,3.23,3.23
70.07,5.52,2.38,5.52,2.38,-2.37,-2.37,-1.92,3.15,3.14,3.14
70.77,5.51,2.46,5.51,2.45,-2.44,-2.43,-1.96,3.07,3.06,3.05
71.48,5.49,2.51,5.49,2.52,-2.51,-2.49,-1.99,2.98,2.98,2.98
72.19,5.48,2.59,5.48,2.58,-2.59,-2.55,-2.03,2.89,2.89,2.89
72.91,5.46,2.65,5.46,2.65,-2.66,-2.61,-2.07,2.80,2.80,2.81
73.64,5.44,2.71,5.44,2.72,-2.73,-2.67,-2.11,2.71,2.71,2.73
74.38,5.42,2.79,5.42,2.79,-2.80,-2.73,-2.15,2.62,2.62,2.63
75.12,5.41,2.87,5.41,2.87,-2.87,-2.79,-2.19,2.54,2.54,2.54
75.87,5.40,2.95,5.40,2.95,-2.94,-2.85,-2.24,2.46,2.46,2.45
76.63,5.38,3.02,5.38,3.02,-3.01,-2.91,-2.28,2.37,2.37,2.36
77.40,5.36,3.08,5.36,3.08,-3.08,-2.97,-2.33,2.28,2.28,2.28
78.17,5.34,3.15,5.34,3.15,-3.15,-3.03,-2.38,2.19,2.19,2.19
78.95,5.32,3.21,5.32,3.21,-3.22,-3.10,-2.43,2.10,2.10,2.11
79.74,5.30,3.28,5.30,3.28,-3.29,-3.16,-2.48,2.01,2.01,2.02
80.54,5.28,3.35,5.28,3.35,-3.35,-3.22,-2.54,1.92,1.92,1.93
81.35,5.26,3.42,5.26,3.42,-3.42,-3.28,-2.59,1.84,1.84,1.84
82.16,5.24,3.49,5.24,3.49,-3.49,-3.34,-2.65,1.75,1.75,1.75
82.98,5.22,3.56,5.22,3.56,-3.55,-3.40,-2.71,1.67,1.67,1.66
83.81,5.20,3.62,5.20,3.62,-3.62,-3.46,-2.78,1.58,1.58,1.58
84.65,5.17,3.68,5.17,3.68,-3.68,-3.53,-2.84,1.49,1.49,1.49
85.50,5.14,3.73,5.14,3.74,-3.74,-3.59,-2.91,1.40,1.41,1.41
86.35,5.12,3.80,5.11,3.80,-3.80,-3.65,-2.98,1.32,1.32,1.32
87.22,5.09,3.85,5.09,3.85,-3.85,-3.71,-3.05,1.24,1.24,1.24
88.09,5.06,3.91,5.06,3.91,-3.91,-3.77,-3.12,1.15,1.15,1.15
88.97,5.04,3.96,5.04,3.96,-3.97,-3.83,-3.20,1.07,1.07,1.08
89.86,5.01,4.02,5.01,4.02,-4.02,-3.89,-3.28,0.99,0.99,0.99
90.76,4.98,4.08,4.98,4.07,-4.08,-3.95,-3.36,0.90,0.90,0.90
91.66,4.95,4.12,4.95,4.13,-4.13,-4.00,-3.45,0.82,0.82,0.83
92.58,4.93,4.19,4.93,4.19,-4.18,-4.06,-3.53,0.74,0.74,0.74
93.51,4.90,4.24,4.90,4.24,-4.24,-4.12,-3.62,0.66,0.66,0.66
94.44,4.87,4.29,4.87,4.29,-4.29,-4.18,-3.71,0.58,0.58,0.58
95.39,4.84,4.34,4.84,4.34,-4.34,-4.23,-3.81,0.50,0.50,0.50
96.34,4.81,4.38,4.81,4.38,-4.39,-4.29,-3.90,0.42,0.42,0.43
97.30,4.78,4.43,4.78,4.43,-4.43,-4.34,-4.00,0.35,0.35,0.35
98.28,4.75,4.48,4.75,4.48,-4.48,-4.39,-4.10,0.27,0.27,0.27
99.26,4.72,4.53,4.72,4.52,-4.52,-4.45,-4.20,0.20,0.20,0.19
100.25,4.68,4.55,4.68,4.56,-4.56,-4.50,-4.30,0.11,0.12,0.13
101.25,4.65,4.60,4.65,4.60,-4.61,-4.55,-4.40,0.04,0.04,0.05
102.27,4.62,4.65,4.62,4.65,-4.65,-4.60,-4.51,-0.03,-0.03,-0.03
103.29,4.59,4.69,4.59,4.70,-4.69,-4.64,-4.61,-0.10,-0.10,-0.10
104.32,4.56,4.74,4.56,4.74,-4.73,-4.69,-4.71,-0.17,-0.17,-0.18
105.37,4.53,4.78,4.53,4.78,-4.77,-4.74,-4.82,-0.24,-0.24,-0.25
106.42,4.50,4.81,4.50,4.81,-4.81,-4.78,-4.92,-0.31,-0.31,-0.31
107.48,4.47,4.84,4.47,4.84,-4.85,-4.82,-5.02,-0.38,-0.38,-0.37
108.56,4.44,4.88,4.44,4.88,-4.88,-4.86,-5.12,-0.44,-0.44,-0.44
109.64,4.41,4.91,4.41,4.91,-4.92,-4.91,-5.22,-0.51,-0.51,-0.50
110.74,4.38,4.94,4.38,4.94,-4.95,-4.94,-5.31,-0.57,-0.57,-0.56
111.85,4.35,4.98,4.35,4.98,-4.98,-4.98,-5.40,-0.63,-0.63,-0.63
112.97,4.32,5.01,4.32,5.01,-5.01,-5.02,-5.49,-0.69,-0.69,-0.69
114.10,4.28,5.04,4.28,5.04,-5.03,-5.05,-5.57,-0.75,-0.75,-0.76
115.24,4.25,5.06,4.25,5.06,-5.06,-5.08,-5.65,-0.81,-0.81,-0.81
116.39,4.22,5.08,4.22,5.08,-5.08,-5.11,-5.72,-0.86,-0.87,-0.86
117.55,4.19,5.11,4.19,5.10,-5.11,-5.14,-5.78,-0.92,-0.92,-0.92
118.73,4.15,5.12,4.15,5.12,-5.13,-5.17,-5.84,-0.98,-0.97,-0.97
119.92,4.12,5.14,4.12,5.14,-5.15,-5.19,-5.89,-1.03,-1.03,-1.02
121.12,4.09,5.16,4.09,5.16,-5.16,-5.22,-5.93,-1.07,-1.08,-1.07
122.33,4.05,5.18,4.05,5.18,-5.18,-5.24,-5.96,-1.13,-1.12,-1.13
123.55,4.02,5.20,4.02,5.20,-5.19,-5.26,-5.99,-1.17,-1.17,-1.18
124.79,3.98,5.20,3.98,5.21,-5.20,-5.27,-6.00,-1.22,-1.22,-1.22
126.03,3.94,5.22,3.94,5.22,-5.21,-5.29,-6.01,-1.27,-1.27,-1.28
127.29,3.90,5.22,3.90,5.22,-5.22,-5.30,-6.01,-1.32,-1.32,-1.32
128.57,3.87,5.22,3.87,5.22,-5.23,-5.31,-6.00,-1.36,-1.36,-1.35
129.85,3.83,5.22,3.83,5.23,-5.24,-5.32,-5.98,-1.41,-1.40,-1.39
131.15,3.80,5.24,3.80,5.24,-5.24,-5.33,-5.96,-1.44,-1.44,-1.44
132.46,3.76,5.24,3.76,5.25,-5.24,-5.34,-5.92,-1.48,-1.48,-1.48
133.79,3.73,5.26,3.73,5.25,-5.25,-5.34,-5.88,-1.52,-1.52,-1.53
135.12,3.69,5.25,3.69,5.25,-5.25,-5.34,-5.83,-1.56,-1.56,-1.56
136.48,3.65,5.25,3.65,5.25,-5.25,-5.34,-5.78,-1.60,-1.60,-1.60
137.84,3.62,5.25,3.61,5.24,-5.25,-5.34,-5.71,-1.63,-1.63,-1.63
139.22,3.57,5.23,3.58,5.24,-5.24,-5.34,-5.65,-1.67,-1.67,-1.66
140.61,3.54,5.23,3.54,5.23,-5.24,-5.33,-5.58,-1.70,-1.70,-1.69
142.02,3.50,5.23,3.50,5.23,-5.23,-5.32,-5.51,-1.73,-1.73,-1.73
143.44,3.46,5.22,3.46,5.22,-5.22,-5.31,-5.43,-1.76,-1.76,-1.76
144.87,3.42,5.21,3.42,5.21,-5.21,-5.30,-5.36,-1.79,-1.79,-1.79
146.32,3.38,5.19,3.38,5.20,-5.20,-5.29,-5.28,-1.82,-1.82,-1.81
147.78,3.34,5.19,3.34,5.19,-5.19,-5.27,-5.20,-1.85,-1.84,-1.85
149.26,3.31,5.18,3.31,5.17,-5.17,-5.25,-5.12,-1.86,-1.87,-1.87
150.75,3.27,5.16,3.27,5.16,-5.16,-5.24,-5.04,-1.89,-1.89,-1.89
152.26,3.22,5.13,3.22,5.14,-5.14,-5.22,-4.96,-1.92,-1.92,-1.91
153.78,3.18,5.12,3.18,5.12,-5.12,-5.19,-4.88,-1.95,-1.95,-1.94
155.32,3.13,5.10,3.13,5.10,-5.10,-5.17,-4.80,-1.98,-1.97,-1.97
156.88,3.09,5.09,3.09,5.09,-5.08,-5.14,-4.72,-1.99,-1.99,-2.00
158.44,3.05,5.06,3.05,5.06,-5.06,-5.12,-4.65,-2.01,-2.01,-2.01
160.03,3.01,5.04,3.01,5.04,-5.03,-5.09,-4.57,-2.02,-2.03,-2.03
161.63,2.96,5.01,2.96,5.01,-5.01,-5.06,-4.50,-2.05,-2.05,-2.05
163.24,2.91,4.97,2.91,4.97,-4.98,-5.03,-4.44,-2.07,-2.07,-2.06
164.88,2.87,4.94,2.87,4.94,-4.95,-4.99,-4.37,-2.08,-2.08,-2.07
166.53,2.82,4.91,2.82,4.91,-4.92,-4.96,-4.31,-2.10,-2.10,-2.09
168.19,2.78,4.89,2.78,4.89,-4.89,-4.92,-4.25,-2.11,-2.11,-2.11
169.87,2.74,4.86,2.74,4.86,-4.85,-4.89,-4.19,-2.11,-2.12,-2.12
171.57,2.69,4.82,2.69,4.82,-4.82,-4.85,-4.14,-2.13,-2.13,-2.13
173.29,2.64,4.78,2.64,4.78,-4.78,-4.81,-4.09,-2.14,-2.14,-2.14
175.02,2.59,4.74,2.59,4.74,-4.75,-4.77,-4.04,-2.16,-2.15,-2.15
176.77,2.55,4.71,2.55,4.71,-4.71,-4.73,-3.99,-2.16,-2.16,-2.16
178.54,2.50,4.67,2.50,4.67,-4.67,-4.68,-3.95,-2.17,-2.17,-2.17
180.32,2.45,4.63,2.45,4.63,-4.63,-4.64,-3.91,-2.18,-2.18,-2.18
182.13,2.40,4.58,2.40,4.59,-4.58,-4.59,-3.88,-2.19,-2.18,-2.18
183.95,2.35,4.54,2.35,4.54,-4.54,-4.55,-3.85,-2.19,-2.19,-2.19
185.79,2.30,4.50,2.30,4.49,-4.50,-4.50,-3.82,-2.20,-2.20,-2.20
187.65,2.24,4.44,2.25,4.45,-4.46,-4.45,-3.79,-2.22,-2.21,-2.20
189.52,2.20,4.42,2.20,4.41,-4.41,-4.40,-3.77,-2.21,-2.21,-2.22
191.42,2.15,4.37,2.15,4.37,-4.36,-4.36,-3.75,-2.22,-2.22,-2.22
193.33,2.10,4.32,2.10,4.32,-4.32,-4.30,-3.73,-2.22,-2.22,-2.22
195.27,2.04,4.27,2.04,4.27,-4.27,-4.25,-3.71,-2.23,-2.23,-2.23
197.22,1.99,4.22,1.99,4.22,-4.22,-4.20,-3.70,-2.23,-2.23,-2.23
199.19,1.94,4.17,1.94,4.17,-4.17,-4.15,-3.69,-2.24,-2.24,-2.23
201.18,1.89,4.13,1.89,4.12,-4.12,-4.10,-3.68,-2.23,-2.24,-2.24
203.19,1.83,4.07,1.83,4.07,-4.07,-4.04,-3.67,-2.24,-2.24,-2.24
205.23,1.78,4.02,1.78,4.02,-4.02,-3.99,-3.66,-2.24,-2.24,-2.24
207.28,1.73,3.97,1.72,3.97,-3.97,-3.93,-3.65,-2.24,-2.24,-2.24
209.35,1.67,3.91,1.67,3.91,-3.92,-3.88,-3.65,-2.25,-2.24,-2.24
211.44,1.62,3.86,1.62,3.86,-3.86,-3.82,-3.65,-2.24,-2.24,-2.24
213.56,1.57,3.81,1.57,3.81,-3.81,-3.77,-3.64,-2.24,-2.24,-2.24
215.69,1.52,3.76,1.52,3.76,-3.76,-3.71,-3.64,-2.24,-2.24,-2.24
217.85,1.47,3.70,1.47,3.70,-3.70,-3.65,-3.63,-2.23,-2.23,-2.23
220.03,1.42,3.65,1.42,3.65,-3.65,-3.59,-3.63,-2.23,-2.23,-2.23
222.23,1.36,3.59,1.36,3.59,-3.60,-3.54,-3.62,-2.24,-2.23,-2.23
224.45,1.31,3.54,1.31,3.54,-3.54,-3.48,-3.61,-2.23,-2.23,-2.23
226.70,1.26,3.49,1.26,3.49,-3.49,-3.42,-3.60,-2.23,-2.23,-2.23
228.96,1.21,3.44,1.21,3.44,-3.44,-3.36,-3.59,-2.23,-2.23,-2.23
231.25,1.16,3.38,1.16,3.39,-3.39,-3.30,-3.57,-2.23,-2.23,-2.22
233.57,1.11,3.34,1.11,3.34,-3.33,-3.24,-3.56,-2.23,-2.23,-2.23
235.90,1.06,3.28,1.06,3.28,-3.28,-3.18,-3.54,-2.22,-2.22,-2.22
238.26,1.01,3.23,1.01,3.23,-3.23,-3.12,-3.51,-2.22,-2.22,-2.22
240.64,0.96,3.17,0.96,3.17,-3.17,-3.06,-3.48,-2.21,-2.21,-2.21
243.05,0.91,3.12,0.91,3.12,-3.12,-3.00,-3.45,-2.21,-2.21,-2.21
245.48,0.86,3.06,0.86,3.06,-3.06,-2.94,-3.41,-2.20,-2.20,-2.20
247.93,0.80,2.99,0.80,3.00,-3.00,-2.88,-3.37,-2.20,-2.20,-2.19
250.41,0.75,2.94,0.75,2.94,-2.94,-2.82,-3.32,-2.19,-2.19,-2.19
252.92,0.69,2.88,0.69,2.87,-2.87,-2.75,-3.27,-2.19,-2.19,-2.19
255.45,0.63,2.80,0.63,2.81,-2.81,-2.69,-3.22,-2.18,-2.18,-2.17
258.00,0.58,2.75,0.58,2.74,-2.75,-2.63,-3.16,-2.17,-2.17,-2.17
260.58,0.52,2.68,0.52,2.68,-2.68,-2.57,-3.09,-2.16,-2.16,-2.16
263.19,0.46,2.61,0.46,2.62,-2.61,-2.51,-3.02,-2.15,-2.15,-2.15
265.82,0.40,2.55,0.40,2.55,-2.55,-2.44,-2.95,-2.15,-2.15,-2.15
268.48,0.35,2.48,0.34,2.48,-2.48,-2.38,-2.87,-2.13,-2.14,-2.13
271.16,0.28,2.41,0.28,2.41,-2.41,-2.32,-2.79,-2.13,-2.13,-2.13
273.87,0.23,2.34,0.22,2.34,-2.34,-2.26,-2.70,-2.11,-2.12,-2.11
276.61,0.16,2.27,0.16,2.27,-2.27,-2.19,-2.61,-2.11,-2.11,-2.11
279.38,0.11,2.20,0.11,2.20,-2.20,-2.13,-2.52,-2.09,-2.10,-2.09
282.17,0.05,2.14,0.05,2.14,-2.13,-2.07,-2.43,-2.09,-2.09,-2.09
284.99,-0.01,2.06,-0.01,2.07,-2.07,-2.00,-2.33,-2.08,-2.08,-2.07
287.84,-0.07,2.00,-0.07,2.00,-2.00,-1.94,-2.23,-2.07,-2.07,-2.07
290.72,-0.13,1.92,-0.13,1.92,-1.93,-1.88,-2.13,-2.06,-2.06,-2.05
293.63,-0.19,1.86,-0.19,1.86,-1.86,-1.81,-2.02,-2.05,-2.05,-2.05
296.57,-0.25,1.78,-0.25,1.79,-1.78,-1.75,-1.92,-2.04,-2.03,-2.03
299.53,-0.31,1.72,-0.31,1.72,-1.71,-1.68,-1.81,-2.02,-2.02,-2.03
302.53,-0.36,1.65,-0.37,1.64,-1.64,-1.62,-1.70,-2.00,-2.01,-2.01
305.55,-0.43,1.56,-0.42,1.57,-1.57,-1.56,-1.59,-2.00,-2.00,-1.99
308.61,-0.48,1.50,-0.48,1.50,-1.50,-1.49,-1.48,-1.98,-1.99,-1.98
311.69,-0.54,1.43,-0.54,1.43,-1.43,-1.43,-1.37,-1.97,-1.98,-1.97
314.81,-0.60,1.36,-0.60,1.36,-1.36,-1.36,-1.26,-1.97,-1.97,-1.96
317.96,-0.66,1.29,-0.66,1.30,-1.30,-1.30,-1.14,-1.96,-1.96,-1.95
321.14,-0.72,1.23,-0.72,1.23,-1.23,-1.23,-1.03,-1.95,-1.94,-1.95
324.35,-0.77,1.17,-0.77,1.16,-1.16,-1.17,-0.92,-1.93,-1.93,-1.94
327.59,-0.83,1.09,-0.83,1.09,-1.09,-1.10,-0.80,-1.92,-1.92,-1.92
330.87,-0.89,1.02,-0.89,1.02,-1.02,-1.04,-0.69,-1.91,-1.91,-1.91
334.18,-0.95,0.94,-0.95,0.94,-0.95,-0.97,-0.57,-1.90,-1.90,-1.89
337.52,-1.01,0.87,-1.01,0.87,-0.88,-0.90,-0.46,-1.89,-1.88,-1.88
340.90,-1.06,0.80,-1.07,0.80,-0.81,-0.84,-0.35,-1.87,-1.87,-1.86
344.30,-1.12,0.73,-1.12,0.73,-0.73,-0.77,-0.23,-1.86,-1.86,-1.85
347.75,-1.18,0.66,-1.18,0.66,-0.66,-0.70,-0.12,-1.85,-1.84,-1.84
351.23,-1.23,0.60,-1.24,0.60,-0.59,-0.64,-0.00,-1.82,-1.83,-1.83
354.74,-1.29,0.53,-1.29,0.53,-0.52,-0.57,0.11,-1.81,-1.81,-1.82
358.28,-1.35,0.45,-1.35,0.46,-0.45,-0.50,0.23,-1.80,-1.80,-1.80
361.87,-1.40,0.39,-1.40,0.38,-0.38,-0.43,0.34,-1.78,-1.79,-1.79
365.49,-1.46,0.31,-1.46,0.31,-0.31,-0.37,0.46,-1.77,-1.77,-1.77
369.14,-1.52,0.22,-1.52,0.23,-0.24,-0.30,0.58,-1.76,-1.76,-1.74
372.83,-1.58,0.16,-1.58,0.16,-0.16,-0.23,0.69,-1.74,-1.74,-1.74
376.56,-1.64,0.09,-1.64,0.09,-0.08,-0.16,0.81,-1.73,-1.73,-1.73
380.33,-1.70,0.02,-1.70,0.01,-0.01,-0.09,0.92,-1.71,-1.71,-1.72
384.13,-1.76,-0.07,-1.76,-0.07,0.07,-0.02,1.04,-1.69,-1.69,-1.69
387.97,-1.82,-0.15,-1.82,-0.15,0.14,0.05,1.15,-1.68,-1.68,-1.67
391.85,-1.88,-0.22,-1.88,-0.22,0.22,0.12,1.27,-1.66,-1.66,-1.66
395.77,-1.93,-0.30,-1.93,-0.30,0.29,0.19,1.38,-1.64,-1.64,-1.63
399.73,-1.99,-0.37,-1.99,-0.37,0.37,0.26,1.50,-1.62,-1.62,-1.62
403.72,-2.04,-0.45,-2.04,-0.44,0.44,0.33,1.61,-1.60,-1.60,-1.59
407.76,-2.09,-0.51,-2.09,-0.51,0.52,0.41,1.72,-1.58,-1.58,-1.58
411.84,-2.14,-0.58,-2.14,-0.58,0.59,0.48,1.84,-1.55,-1.55,-1.56
415.96,-2.19,-0.66,-2.19,-0.66,0.66,0.55,1.95,-1.53,-1.53,-1.53
420.12,-2.25,-0.73,-2.25,-0.73,0.73,0.63,2.05,-1.52,-1.52,-1.52
424.32,-2.31,-0.82,-2.31,-0.81,0.81,0.70,2.16,-1.50,-1.50,-1.49
428.56,-2.36,-0.88,-2.36,-0.88,0.88,0.77,2.26,-1.48,-1.48,-1.48
432.85,-2.41,-0.96,-2.41,-0.96,0.95,0.85,2.36,-1.46,-1.46,-1.45
437.18,-2.46,-1.02,-2.46,-1.02,1.03,0.92,2.46,-1.44,-1.44,-1.44
441.55,-2.52,-1.10,-2.52,-1.10,1.10,1.00,2.56,-1.42,-1.42,-1.42
445.96,-2.57,-1.17,-2.57,-1.17,1.17,1.08,2.65,-1.40,-1.40,-1.40
450.42,-2.62,-1.24,-2.63,-1.24,1.24,1.15,2.73,-1.38,-1.38,-1.38
454.93,-2.68,-1.32,-2.68,-1.32,1.32,1.23,2.82,-1.36,-1.36,-1.36
459.48,-2.73,-1.40,-2.73,-1.40,1.39,1.31,2.89,-1.34,-1.34,-1.33
464.07,-2.78,-1.47,-2.78,-1.47,1.47,1.39,2.96,-1.31,-1.31,-1.31
468.71,-2.84,-1.55,-2.84,-1.55,1.55,1.46,3.03,-1.29,-1.29,-1.29
473.40,-2.89,-1.62,-2.89,-1.62,1.63,1.54,3.09,-1.27,-1.27,-1.27
478.13,-2.95,-1.71,-2.95,-1.70,1.71,1.62,3.14,-1.25,-1.24,-1.24
482.91,-3.00,-1.78,-3.00,-1.78,1.78,1.70,3.19,-1.22,-1.22,-1.22
487.74,-3.05,-1.86,-3.05,-1.86,1.86,1.78,3.22,-1.19,-1.19,-1.19
492.62,-3.10,-1.93,-3.11,-1.94,1.94,1.86,3.25,-1.16,-1.17,-1.17
497.55,-3.16,-2.03,-3.16,-2.02,2.02,1.94,3.28,-1.15,-1.14,-1.13
502.52,-3.21,-2.10,-3.21,-2.10,2.09,2.02,3.29,-1.12,-1.12,-1.11
