frequency,raw
20.00,-30.94
20.20,-30.20
20.40,-29.32
20.61,-28.62
20.81,-27.94
21.02,-27.55
21.23,-26.39
21.44,-25.36
21.66,-24.90
21.87,-23.92
22.09,-23.02
22.31,-21.94
22.54,-21.31
22.76,-20.53
22.99,-19.24
23.22,-18.27
23.45,-17.71
23.69,-17.21
23.92,-16.72
24.16,-16.53
24.40,-16.24
24.65,-16.03
24.89,-15.94
25.14,-15.93
25.39,-16.00
25.65,-16.14
25.91,-16.27
26.16,-16.70
26.43,-17.09
26.69,-17.57
26.96,-18.04
27.23,-18.45
27.50,-18.79
27.77,-20.27
28.05,-21.28
28.33,-22.11
28.62,-22.90
28.90,-23.56
29.19,-24.14
29.48,-25.03
29.78,-26.66
30.08,-27.34
30.38,-27.78
30.68,-28.67
30.99,-28.91
31.30,-29.30
31.61,-29.67
31.93,-29.89
32.24,-29.75
32.57,-29.58
32.89,-29.23
33.22,-28.84
33.55,-28.30
33.89,-27.21
34.23,-26.48
34.57,-25.47
34.92,-24.73
35.27,-24.13
35.62,-23.30
35.97,-22.36
36.33,-21.42
36.70,-20.87
37.06,-20.15
37.43,-19.32
37.81,-18.51
38.19,-17.91
38.57,-16.71
38.95,-16.13
39.34,-15.42
39.74,-14.95
40.14,-14.57
40.54,-14.23
40.94,-14.01
41.35,-13.83
41.76,-13.69
42.18,-13.61
42.60,-13.52
43.03,-13.47
43.46,-13.35
43.90,-13.18
44.33,-12.96
44.78,-12.50
45.23,-12.14
45.68,-11.90
46.13,-11.49
46.60,-10.99
47.06,-10.22
47.53,-9.52
48.01,-9.06
48.49,-8.52
48.97,-7.89
49.46,-7.29
49.96,-6.77
50.46,-6.09
50.96,-5.55
51.47,-5.03
51.99,-4.72
52.51,-4.26
53.03,-3.76
53.56,-3.11
54.10,-2.73
54.64,-2.24
55.18,-1.78
55.74,-1.40
56.29,-0.99
56.86,-0.51
57.42,0.15
58.00,0.77
58.58,1.40
59.16,2.09
59.76,2.70
60.35,3.17
60.96,3.32
61.57,3.34
62.18,3.23
62.80,3.01
63.43,2.76
64.07,2.59
64.71,2.34
65.35,1.99
66.01,1.55
66.67,1.08
67.33,0.71
68.01,0.56
68.69,0.72
69.37,1.08
70.07,1.62
70.77,2.42
71.48,3.24
72.19,4.02
72.91,4.76
73.64,5.25
74.38,5.57
75.12,5.69
75.87,5.55
76.63,5.49
77.40,5.39
78.17,5.17
78.95,4.60
79.74,3.88
80.54,3.27
81.35,2.94
82.16,3.03
82.98,3.42
83.81,4.14
84.65,4.85
85.50,5.65
86.35,6.31
87.22,6.92
88.09,7.48
88.97,7.98
89.86,8.54
90.76,9.05
91.66,9.29
92.58,8.90
93.51,8.05
94.44,6.33
95.39,4.22
96.34,2.49
97.30,1.96
98.28,1.98
99.26,2.53
100.25,3.35
101.25,4.05
102.27,4.53
103.29,4.73
104.32,4.75
105.37,4.72
106.42,4.81
107.48,5.13
108.56,5.59
109.64,6.13
110.74,6.75
111.85,7.41
112.97,8.07
114.10,8.72
115.24,9.32
116.39,9.75
117.55,9.76
118.73,9.18
119.92,8.14
121.12,6.65
122.33,4.53
123.55,3.21
124.79,2.39
126.03,2.31
127.29,2.66
128.57,3.57
129.85,4.55
131.15,5.54
132.46,6.04
133.79,6.25
135.12,6.15
136.48,5.88
137.84,5.56
139.22,5.30
140.61,5.14
142.02,5.05
143.44,4.99
144.87,4.91
146.32,4.71
147.78,4.48
149.26,4.19
150.75,3.83
152.26,3.35
153.78,2.72
155.32,1.88
156.88,0.83
158.44,-0.09
160.03,-0.80
161.63,-1.20
163.24,-1.44
164.88,-1.30
166.53,-1.03
168.19,-0.38
169.87,0.48
171.57,1.67
173.29,3.03
175.02,4.37
176.77,5.48
178.54,6.19
180.32,6.49
182.13,6.56
183.95,6.46
185.79,6.35
187.65,6.28
189.52,6.32
191.42,6.44
193.33,6.64
195.27,6.83
197.22,6.95
199.19,7.06
201.18,7.06
203.19,7.03
205.23,6.86
207.28,6.62
209.35,6.26
211.44,5.81
213.56,5.34
215.69,4.84
217.85,4.52
220.03,4.31
222.23,4.30
224.45,4.49
226.70,4.79
228.96,5.27
231.25,5.78
233.57,6.29
235.90,6.76
238.26,7.22
240.64,7.36
243.05,7.35
245.48,7.33
247.93,7.13
250.41,6.79
252.92,6.30
255.45,5.70
258.00,5.04
260.58,4.32
263.19,3.70
265.82,3.15
268.48,2.67
271.16,2.31
273.87,2.03
276.61,1.94
279.38,1.96
282.17,2.04
284.99,2.26
287.84,2.50
290.72,2.77
293.63,3.04
296.57,3.31
299.53,3.58
302.53,3.85
305.55,4.02
308.61,4.20
311.69,4.37
314.81,4.51
317.96,4.61
321.14,4.71
324.35,4.81
327.59,4.89
330.87,4.97
334.18,5.05
337.52,5.13
340.90,5.20
344.30,5.27
347.75,5.30
351.23,5.32
354.74,5.31
358.28,5.29
361.87,5.23
365.49,5.17
369.14,5.09
372.83,5.00
376.56,4.90
380.33,4.80
384.13,4.69
387.97,4.58
391.85,4.45
395.77,4.32
399.73,4.19
403.72,4.07
407.76,3.98
411.84,3.88
415.96,3.79
420.12,3.73
424.32,3.73
428.56,3.73
432.85,3.75
437.18,3.81
441.55,3.94
445.96,4.06
450.42,4.15
454.93,4.21
459.48,4.21
464.07,4.17
468.71,4.06
473.40,3.89
478.13,3.61
482.91,3.33
487.74,3.04
492.62,2.75
497.55,2.44
502.52,2.22
507.55,2.09
512.62,2.01
517.75,1.98
522.93,2.06
528.16,2.21
533.44,2.40
538.77,2.61
544.16,2.89
549.60,3.20
555.10,3.51
560.65,3.83
566.25,4.04
571.92,4.25
577.64,4.44
583.41,4.60
589.25,4.66
595.14,4.73
601.09,4.80
607.10,4.88
613.17,4.97
619.30,5.07
625.50,5.18
631.75,5.32
638.07,5.48
644.45,5.65
650.89,5.83
657.40,6.03
663.98,6.22
670.62,6.42
677.32,6.61
684.10,6.76
690.94,6.84
697.85,6.89
704.83,6.92
711.87,6.90
718.99,6.87
726.18,6.83
733.44,6.68
740.78,6.51
748.19,6.33
755.67,6.03
763.23,5.69
770.86,5.35
778.57,5.05
786.35,4.75
794.22,4.45
802.16,4.15
810.18,3.88
818.28,3.64
826.46,3.44
834.73,3.26
843.08,3.10
851.51,2.96
860.02,2.95
868.62,2.97
877.31,3.06
886.08,3.24
894.94,3.45
903.89,3.61
912.93,3.73
922.06,3.83
931.28,3.68
940.59,3.48
950.00,3.16
959.50,2.64
969.09,2.11
978.78,1.48
988.57,0.78
998.46,0.07
1008.44,-0.38
1018.53,-0.75
1028.71,-1.00
1039.00,-1.14
1049.39,-1.27
1059.88,-1.23
1070.48,-1.14
1081.19,-1.04
1092.00,-0.95
1102.92,-1.02
1113.95,-1.20
1125.09,-1.40
1136.34,-1.76
1147.70,-2.17
1159.18,-2.62
1170.77,-3.03
1182.48,-3.23
1194.30,-3.25
1206.25,-3.17
1218.31,-2.96
1230.49,-2.62
1242.80,-2.21
1255.22,-1.75
1267.78,-1.23
1280.45,-0.74
1293.26,-0.27
1306.19,0.17
1319.25,0.59
1332.45,0.98
1345.77,1.34
1359.23,1.66
1372.82,1.91
1386.55,2.12
1400.41,2.33
1414.42,2.43
1428.56,2.53
1442.85,2.61
1457.28,2.66
1471.85,2.66
1486.57,2.66
1501.43,2.66
1516.45,2.66
1531.61,2.66
1546.93,2.67
1562.40,2.70
1578.02,2.74
1593.80,2.78
1609.74,2.82
1625.84,2.89
1642.10,2.96
1658.52,3.03
1675.10,3.10
1691.85,3.17
1708.77,3.23
1725.86,3.27
1743.12,3.32
1760.55,3.35
1778.15,3.37
1795.94,3.37
1813.90,3.38
1832.03,3.38
1850.36,3.38
1868.86,3.35
1887.55,3.19
1906.42,3.03
1925.49,2.85
1944.74,2.61
1964.19,2.29
1983.83,1.93
2003.67,1.53
2023.71,1.10
2043.94,0.65
2064.38,0.24
2085.03,-0.16
2105.88,-0.56
2126.94,-0.94
2148.20,-1.30
2169.69,-1.66
2191.38,-2.02
2213.30,-2.38
2235.43,-2.74
2257.78,-3.09
2280.36,-3.44
2303.17,-3.77
2326.20,-4.09
2349.46,-4.40
2372.95,-4.71
2396.68,-5.01
2420.65,-5.28
2444.86,-5.50
2469.31,-5.72
2494.00,-5.93
2518.94,-6.00
2544.13,-6.01
2569.57,-6.00
2595.27,-5.93
2621.22,-5.61
2647.43,-5.27
2673.90,-4.93
2700.64,-4.50
2727.65,-4.03
2754.93,-3.57
2782.48,-3.11
2810.30,-2.66
2838.40,-2.23
2866.79,-1.83
2895.46,-1.44
2924.41,-1.07
2953.65,-0.73
2983.19,-0.39
3013.02,-0.08
3043.15,0.27
3073.58,0.64
3104.32,1.04
3135.36,1.41
3166.72,1.72
3198.38,2.01
3230.37,2.30
3262.67,2.46
3295.30,2.60
3328.25,2.73
3361.53,2.80
3395.15,2.85
3429.10,2.88
3463.39,2.90
3498.03,2.90
3533.01,2.88
3568.34,2.86
3604.02,2.78
3640.06,2.71
3676.46,2.63
3713.22,2.57
3750.36,2.50
3787.86,2.40
3825.74,2.28
3864.00,2.13
3902.64,1.97
3941.66,1.80
3981.08,1.62
4020.89,1.45
4061.10,1.29
4101.71,1.12
4142.73,1.07
4184.15,1.04
4226.00,1.03
4268.26,1.02
4310.94,1.01
4354.05,1.00
4397.59,1.00
4441.56,0.99
4485.98,0.97
4530.84,0.91
4576.15,0.80
4621.91,0.65
4668.13,0.45
4714.81,0.19
4761.96,-0.09
4809.58,-0.40
4857.67,-0.74
4906.25,-1.15
4955.31,-1.60
5004.87,-2.09
5054.91,-2.51
5105.46,-2.90
5156.52,-3.29
5208.08,-3.52
5260.16,-3.73
5312.77,-3.91
5365.89,-3.85
5419.55,-3.76
5473.75,-3.65
5528.49,-3.31
5583.77,-2.96
5639.61,-2.58
5696.00,-2.10
5752.96,-1.65
5810.49,-1.22
5868.60,-0.85
5927.28,-0.57
5986.56,-0.35
6046.42,-0.27
6106.89,-0.28
6167.96,-0.34
6229.64,-0.46
6291.93,-0.64
6354.85,-0.84
6418.40,-1.06
6482.58,-1.23
6547.41,-1.39
6612.88,-1.53
6679.01,-1.55
6745.80,-1.55
6813.26,-1.48
6881.39,-1.22
6950.21,-0.94
7019.71,-0.60
7089.91,-0.18
7160.81,0.21
7232.41,0.54
7304.74,0.83
7377.79,1.05
7451.56,1.20
7526.08,1.28
7601.34,1.31
7677.35,1.25
7754.13,1.11
7831.67,0.89
7909.98,0.57
7989.08,0.20
8068.98,-0.20
8149.67,-0.63
8231.16,-0.96
8313.47,-1.26
8396.61,-1.54
8480.57,-1.62
8565.38,-1.68
8651.03,-1.68
8737.54,-1.55
8824.92,-1.39
8913.17,-1.18
9002.30,-0.93
9092.32,-0.71
9183.25,-0.54
9275.08,-0.41
9367.83,-0.34
9461.51,-0.38
9556.12,-0.42
9651.68,-0.49
9748.20,-0.64
9845.68,-0.84
9944.14,-1.00
10043.58,-1.12
10144.02,-1.22
10245.46,-1.20
10347.91,-1.12
10451.39,-1.02
10555.91,-0.79
10661.46,-0.55
10768.08,-0.29
10875.76,0.04
10984.52,0.35
11094.36,0.63
11205.31,0.89
11317.36,1.14
11430.53,1.42
11544.84,1.69
11660.29,1.95
11776.89,2.18
11894.66,2.35
12013.60,2.48
12133.74,2.55
12255.08,2.41
12377.63,2.21
12501.41,1.88
12626.42,1.41
12752.68,0.76
12880.21,0.10
13009.01,-0.42
13139.10,-0.73
13270.49,-1.01
13403.20,-1.17
13537.23,-1.27
13672.60,-1.37
13809.33,-1.35
13947.42,-1.32
14086.90,-1.28
14227.77,-1.23
14370.04,-1.19
14513.74,-1.14
14658.88,-1.06
14805.47,-0.94
14953.52,-0.77
15103.06,-0.56
15254.09,-0.31
15406.63,-0.05
15560.70,0.23
15716.30,0.52
15873.47,0.68
16032.20,0.66
16192.52,0.62
16354.45,0.45
16517.99,0.22
16683.17,-0.04
16850.01,-0.41
17018.51,-0.74
17188.69,-1.03
17360.58,-1.27
17534.18,-1.41
17709.53,-1.40
17886.62,-1.32
18065.49,-1.17
18246.14,-0.98
18428.60,-0.84
18612.89,-0.71
18799.02,-0.61
18987.01,-0.55
19176.88,-0.49
19368.65,-0.54
19562.33,-0.61
19757.96,-0.66
19955.54,-0.66
