frequency,raw,error,smoothed,error_smoothed,equalization,fixed_band_eq,equalized_raw,equalized_smoothed,target
20.00,5.10,0.33,5.10,0.33,-0.33,-0.20,4.77,4.77,4.77
20.20,5.12,0.36,5.12,0.36,-0.36,-0.21,4.76,4.76,4.76
20.40,5.13,0.38,5.14,0.39,-0.39,-0.21,4.74,4.75,4.75
20.61,5.16,0.42,5.16,0.42,-0.42,-0.22,4.74,4.73,4.73
20.81,5.18,0.46,5.17,0.45,-0.45,-0.22,4.73,4.72,4.72
21.02,5.19,0.48,5.19,0.48,-0.48,-0.23,4.71,4.71,4.71
21.23,5.21,0.51,5.21,0.51,-0.51,-0.23,4.70,4.70,4.70
21.44,5.23,0.54,5.23,0.54,-0.54,-0.24,4.69,4.69,4.69
21.66,5.25,0.57,5.25,0.57,-0.57,-0.24,4.68,4.68,4.68
21.87,5.27,0.60,5.27,0.60,-0.60,-0.25,4.67,4.67,4.67
22.09,5.29,0.63,5.29,0.63,-0.63,-0.25,4.66,4.66,4.66
22.31,5.31,0.66,5.31,0.66,-0.66,-0.26,4.65,4.65,4.65
22.54,5.33,0.68,5.32,0.68,-0.69,-0.26,4.64,4.64,4.65
22.76,5.34,0.70,5.34,0.71,-0.71,-0.27,4.62,4.63,4.64
22.99,5.36,0.74,5.36,0.74,-0.74,-0.28,4.62,4.62,4.62
23.22,5.39,0.78,5.38,0.77,-0.77,-0.28,4.62,4.61,4.61
23.45,5.41,0.81,5.41,0.81,-0.80,-0.29,4.61,4.61,4.60
23.69,5.42,0.83,5.42,0.83,-0.83,-0.30,4.59,4.60,4.59
23.92,5.44,0.85,5.44,0.86,-0.86,-0.30,4.58,4.58,4.58
24.16,5.45,0.88,5.45,0.88,-0.88,-0.31,4.57,4.57,4.57
24.40,5.47,0.91,5.47,0.90,-0.91,-0.32,4.56,4.56,4.56
24.65,5.48,0.93,5.48,0.93,-0.94,-0.33,4.54,4.55,4.55
24.89,5.50,0.96,5.50,0.96,-0.96,-0.33,4.54,4.54,4.54
25.14,5.52,1.00,5.51,0.99,-0.99,-0.34,4.53,4.53,4.52
25.39,5.53,1.02,5.53,1.02,-1.02,-0.35,4.51,4.51,4.51
25.65,5.54,1.04,5.54,1.04,-1.05,-0.36,4.49,4.50,4.50
25.91,5.56,1.07,5.56,1.07,-1.07,-0.37,4.49,4.48,4.49
26.16,5.57,1.10,5.57,1.10,-1.10,-0.38,4.47,4.47,4.47
26.43,5.59,1.13,5.59,1.13,-1.13,-0.38,4.46,4.46,4.46
26.69,5.61,1.16,5.60,1.15,-1.15,-0.39,4.46,4.45,4.45
26.96,5.62,1.18,5.62,1.18,-1.18,-0.40,4.44,4.44,4.44
27.23,5.63,1.19,5.63,1.20,-1.20,-0.41,4.43,4.43,4.43
27.50,5.65,1.23,5.64,1.22,-1.22,-0.42,4.42,4.42,4.42
27.77,5.66,1.25,5.66,1.25,-1.25,-0.43,4.41,4.41,4.41
28.05,5.67,1.26,5.67,1.27,-1.27,-0.44,4.40,4.40,4.41
28.33,5.69,1.30,5.69,1.29,-1.30,-0.46,4.39,4.39,4.39
28.62,5.70,1.32,5.70,1.32,-1.32,-0.47,4.38,4.38,4.38
28.90,5.72,1.35,5.72,1.35,-1.35,-0.48,4.37,4.37,4.37
29.19,5.73,1.37,5.73,1.37,-1.37,-0.49,4.36,4.36,4.36
29.48,5.74,1.40,5.74,1.40,-1.40,-0.50,4.34,4.34,4.34
29.78,5.75,1.42,5.75,1.42,-1.42,-0.52,4.33,4.33,4.33
30.08,5.77,1.45,5.77,1.45,-1.45,-0.53,4.32,4.32,4.32
30.38,5.78,1.47,5.78,1.47,-1.47,-0.54,4.31,4.31,4.31
30.68,5.80,1.50,5.80,1.49,-1.49,-0.56,4.31,4.31,4.30
30.99,5.81,1.51,5.81,1.51,-1.51,-0.57,4.30,4.30,4.30
31.30,5.82,1.53,5.82,1.53,-1.53,-0.59,4.29,4.29,4.29
31.61,5.82,1.54,5.82,1.54,-1.55,-0.60,4.27,4.28,4.28
31.93,5.83,1.56,5.83,1.56,-1.57,-0.62,4.26,4.26,4.27
32.24,5.84,1.59,5.84,1.58,-1.59,-0.63,4.25,4.25,4.25
32.57,5.85,1.61,5.85,1.61,-1.61,-0.65,4.24,4.24,4.24
32.89,5.86,1.63,5.86,1.63,-1.63,-0.67,4.22,4.23,4.23
33.22,5.87,1.66,5.87,1.66,-1.66,-0.68,4.21,4.21,4.21
33.55,5.89,1.69,5.88,1.69,-1.69,-0.70,4.20,4.20,4.20
33.89,5.90,1.71,5.90,1.71,-1.71,-0.72,4.19,4.19,4.19
34.23,5.91,1.74,5.91,1.74,-1.74,-0.74,4.17,4.17,4.17
34.57,5.93,1.77,5.93,1.77,-1.76,-0.76,4.17,4.16,4.16
34.92,5.94,1.79,5.94,1.79,-1.79,-0.78,4.15,4.15,4.15
35.27,5.95,1.81,5.95,1.81,-1.81,-0.80,4.14,4.14,4.14
35.62,5.96,1.82,5.96,1.83,-1.83,-0.82,4.13,4.13,4.13
35.97,5.97,1.85,5.97,1.85,-1.85,-0.85,4.12,4.12,4.12
36.33,5.97,1.86,5.97,1.86,-1.86,-0.87,4.11,4.11,4.11
36.70,5.97,1.88,5.97,1.88,-1.88,-0.89,4.09,4.09,4.09
37.06,5.97,1.89,5.97,1.89,-1.89,-0.92,4.08,4.08,4.08
37.43,5.97,1.91,5.97,1.91,-1.91,-0.95,4.06,4.06,4.06
37.81,5.97,1.92,5.97,1.92,-1.92,-0.97,4.05,4.05,4.05
38.19,5.97,1.94,5.97,1.93,-1.93,-1.00,4.04,4.04,4.03
38.57,5.97,1.94,5.97,1.95,-1.95,-1.03,4.02,4.02,4.03
38.95,5.97,1.96,5.97,1.96,-1.96,-1.06,4.01,4.01,4.01
39.34,5.97,1.97,5.97,1.97,-1.97,-1.09,4.00,4.00,3.99
39.74,5.97,1.98,5.97,1.98,-1.98,-1.12,3.98,3.98,3.99
40.14,5.97,2.00,5.97,2.00,-2.00,-1.15,3.97,3.97,3.97
40.54,5.97,2.01,5.97,2.01,-2.01,-1.18,3.96,3.96,3.96
40.94,5.97,2.03,5.97,2.03,-2.03,-1.21,3.94,3.94,3.94
41.35,5.97,2.04,5.97,2.04,-2.04,-1.25,3.93,3.93,3.92
41.76,5.97,2.06,5.97,2.06,-2.06,-1.29,3.91,3.91,3.91
42.18,5.97,2.08,5.97,2.08,-2.08,-1.32,3.89,3.89,3.89
42.60,5.97,2.09,5.97,2.09,-2.09,-1.36,3.88,3.88,3.87
43.03,5.97,2.10,5.97,2.11,-2.11,-1.40,3.86,3.86,3.87
43.46,5.97,2.12,5.97,2.12,-2.12,-1.44,3.85,3.85,3.85
43.90,5.97,2.14,5.97,2.14,-2.14,-1.48,3.83,3.83,3.83
44.33,5.97,2.16,5.97,2.16,-2.15,-1.52,3.81,3.81,3.81
44.78,5.97,2.17,5.97,2.17,-2.17,-1.57,3.80,3.80,3.80
45.23,5.97,2.19,5.97,2.19,-2.19,-1.61,3.78,3.78,3.78
45.68,5.97,2.20,5.97,2.20,-2.20,-1.66,3.77,3.77,3.77
46.13,5.97,2.22,5.97,2.22,-2.22,-1.71,3.75,3.75,3.75
46.60,5.96,2.23,5.96,2.23,-2.23,-1.75,3.73,3.73,3.73
47.06,5.96,2.25,5.96,2.25,-2.25,-1.80,3.71,3.71,3.71
47.53,5.96,2.26,5.96,2.26,-2.26,-1.85,3.70,3.70,3.70
48.01,5.96,2.28,5.96,2.27,-2.27,-1.90,3.68,3.69,3.68
48.49,5.96,2.29,5.96,2.29,-2.29,-1.96,3.67,3.67,3.67
48.97,5.95,2.30,5.95,2.30,-2.30,-2.01,3.65,3.65,3.65
49.46,5.94,2.31,5.94,2.31,-2.31,-2.06,3.63,3.63,3.63
49.96,5.93,2.32,5.93,2.32,-2.31,-2.12,3.62,3.61,3.61
50.46,5.91,2.32,5.91,2.32,-2.32,-2.17,3.59,3.59,3.59
50.96,5.89,2.32,5.89,2.32,-2.32,-2.23,3.57,3.57,3.57
51.47,5.88,2.33,5.88,2.32,-2.33,-2.29,3.55,3.55,3.55
51.99,5.86,2.33,5.86,2.33,-2.33,-2.34,3.53,3.53,3.53
52.51,5.85,2.33,5.85,2.33,-2.34,-2.40,3.51,3.51,3.52
53.03,5.84,2.34,5.84,2.34,-2.35,-2.45,3.49,3.49,3.49
53.56,5.84,2.36,5.84,2.36,-2.36,-2.51,3.48,3.47,3.48
54.10,5.83,2.37,5.83,2.38,-2.38,-2.57,3.45,3.45,3.46
54.64,5.83,2.40,5.83,2.40,-2.40,-2.62,3.43,3.43,3.43
55.18,5.83,2.42,5.82,2.42,-2.42,-2.67,3.41,3.41,3.41
55.74,5.82,2.44,5.82,2.44,-2.44,-2.73,3.38,3.39,3.38
56.29,5.82,2.45,5.82,2.46,-2.45,-2.78,3.36,3.37,3.37
56.86,5.82,2.48,5.81,2.48,-2.47,-2.83,3.35,3.34,3.34
57.42,5.81,2.50,5.81,2.49,-2.49,-2.88,3.32,3.32,3.31
58.00,5.79,2.49,5.79,2.50,-2.50,-2.92,3.29,3.29,3.30
58.58,5.78,2.51,5.78,2.51,-2.51,-2.96,3.27,3.27,3.27
59.16,5.76,2.52,5.76,2.52,-2.52,-3.01,3.24,3.24,3.24
59.76,5.74,2.53,5.74,2.53,-2.53,-3.04,3.21,3.21,3.21
60.35,5.72,2.54,5.72,2.54,-2.54,-3.08,3.18,3.18,3.18
60.96,5.71,2.55,5.71,2.55,-2.55,-3.11,3.16,3.16,3.16
61.57,5.69,2.56,5.69,2.56,-2.56,-3.14,3.13,3.13,3.13
62.18,5.68,2.58,5.68,2.57,-2.58,-3.16,3.10,3.10,3.10
62.80,5.66,2.58,5.66,2.59,-2.59,-3.19,3.07,3.07,3.08
63.43,5.65,2.60,5.65,2.60,-2.61,-3.21,3.04,3.04,3.04
64.07,5.64,2.63,5.63,2.62,-2.62,-3.22,3.02,3.01,3.01
64.71,5.62,2.64,5.62,2.65,-2.64,-3.23,2.98,2.98,2.98
65.35,5.61,2.66,5.61,2.66,-2.66,-3.24,2.95,2.95,2.94
66.01,5.60,2.68,5.59,2.68,-2.67,-3.25,2.93,2.92,2.92
66.67,5.58,2.68,5.58,2.69,-2.69,-3.25,2.89,2.89,2.89
67.33,5.57,2.71,5.57,2.71,-2.71,-3.26,2.85,2.85,2.86
68.01,5.56,2.73,5.55,2.73,-2.74,-3.25,2.82,2.82,2.83
68.69,5.54,2.76,5.54,2.76,-2.76,-3.25,2.78,2.78,2.78
69.37,5.53,2.78,5.53,2.78,-2.78,-3.25,2.75,2.75,2.75
70.07,5.52,2.81,5.52,2.81,-2.80,-3.24,2.71,2.71,2.71
70.77,5.51,2.84,5.51,2.84,-2.83,-3.23,2.68,2.68,2.67
71.48,5.49,2.85,5.49,2.86,-2.85,-3.22,2.64,2.64,2.64
72.19,5.48,2.88,5.48,2.88,-2.88,-3.21,2.60,2.60,2.60
72.91,5.46,2.89,5.46,2.89,-2.90,-3.20,2.56,2.56,2.57
73.64,5.44,2.91,5.44,2.91,-2.92,-3.19,2.52,2.52,2.53
74.38,5.42,2.94,5.42,2.94,-2.95,-3.18,2.47,2.48,2.48
75.12,5.41,2.97,5.41,2.97,-2.97,-3.17,2.44,2.44,2.44
75.87,5.40,3.01,5.40,3.00,-3.00,-3.16,2.40,2.40,2.39
76.63,5.38,3.03,5.38,3.03,-3.02,-3.15,2.36,2.36,2.35
77.40,5.36,3.05,5.36,3.05,-3.05,-3.14,2.31,2.31,2.31
78.17,5.34,3.07,5.34,3.07,-3.07,-3.13,2.27,2.27,2.27
78.95,5.32,3.09,5.32,3.09,-3.10,-3.13,2.22,2.22,2.23
79.74,5.30,3.12,5.30,3.12,-3.13,-3.12,2.17,2.17,2.18
80.54,5.28,3.15,5.28,3.15,-3.15,-3.12,2.13,2.13,2.13
81.35,5.26,3.18,5.26,3.18,-3.18,-3.12,2.08,2.08,2.08
82.16,5.24,3.21,5.24,3.21,-3.20,-3.12,2.04,2.04,2.03
82.98,5.22,3.24,5.22,3.23,-3.23,-3.12,1.99,1.99,1.98
83.81,5.20,3.26,5.20,3.26,-3.25,-3.13,1.95,1.94,1.94
84.65,5.17,3.28,5.17,3.28,-3.28,-3.13,1.89,1.89,1.89
85.50,5.14,3.29,5.14,3.30,-3.30,-3.14,1.84,1.85,1.85
86.35,5.12,3.32,5.11,3.32,-3.32,-3.16,1.80,1.79,1.80
87.22,5.09,3.34,5.09,3.34,-3.34,-3.17,1.75,1.75,1.75
88.09,5.06,3.36,5.06,3.36,-3.36,-3.19,1.70,1.70,1.70
88.97,5.04,3.38,5.04,3.39,-3.39,-3.21,1.65,1.65,1.65
89.86,5.01,3.41,5.01,3.41,-3.41,-3.23,1.60,1.60,1.60
90.76,4.98,3.44,4.98,3.43,-3.43,-3.25,1.55,1.55,1.54
91.66,4.95,3.45,4.95,3.46,-3.46,-3.28,1.49,1.49,1.50
92.58,4.93,3.49,4.93,3.48,-3.48,-3.31,1.45,1.44,1.44
93.51,4.90,3.51,4.90,3.51,-3.51,-3.34,1.39,1.39,1.39
94.44,4.87,3.53,4.87,3.53,-3.53,-3.37,1.34,1.34,1.34
95.39,4.84,3.56,4.84,3.56,-3.56,-3.41,1.28,1.28,1.28
96.34,4.81,3.58,4.81,3.58,-3.58,-3.45,1.23,1.23,1.23
97.30,4.78,3.60,4.78,3.60,-3.60,-3.48,1.18,1.18,1.18
98.28,4.75,3.62,4.75,3.62,-3.62,-3.53,1.13,1.13,1.13
99.26,4.72,3.65,4.72,3.64,-3.64,-3.57,1.07,1.07,1.07
100.25,4.68,3.66,4.68,3.66,-3.67,-3.61,1.01,1.01,1.02
101.25,4.65,3.69,4.65,3.69,-3.69,-3.66,0.96,0.96,0.96
102.27,4.62,3.72,4.62,3.71,-3.72,-3.71,0.90,0.90,0.90
103.29,4.59,3.74,4.59,3.75,-3.74,-3.75,0.85,0.85,0.84
104.32,4.56,3.77,4.56,3.77,-3.77,-3.80,0.79,0.79,0.79
105.37,4.53,3.80,4.53,3.80,-3.79,-3.85,0.73,0.73,0.73
106.42,4.50,3.82,4.50,3.82,-3.82,-3.90,0.68,0.68,0.68
107.48,4.47,3.84,4.47,3.84,-3.84,-3.95,0.62,0.62,0.63
108.56,4.44,3.87,4.44,3.86,-3.87,-4.00,0.57,0.57,0.57
109.64,4.41,3.89,4.41,3.89,-3.89,-4.05,0.52,0.52,0.52
110.74,4.38,3.91,4.38,3.91,-3.91,-4.09,0.47,0.47,0.47
111.85,4.35,3.94,4.35,3.93,-3.94,-4.14,0.41,0.41,0.41
112.97,4.32,3.96,4.32,3.96,-3.96,-4.18,0.36,0.36,0.36
114.10,4.28,3.98,4.28,3.98,-3.98,-4.22,0.30,0.30,0.30
115.24,4.25,4.00,4.25,4.00,-4.00,-4.25,0.25,0.25,0.25
116.39,4.22,4.02,4.22,4.02,-4.02,-4.29,0.20,0.20,0.20
117.55,4.19,4.04,4.19,4.04,-4.04,-4.32,0.15,0.15,0.15
118.73,4.15,4.05,4.15,4.05,-4.06,-4.35,0.09,0.10,0.10
119.92,4.12,4.07,4.12,4.07,-4.07,-4.37,0.04,0.04,0.05
121.12,4.09,4.09,4.09,4.09,-4.09,-4.39,-0.00,-0.01,-0.00
122.33,4.05,4.11,4.05,4.11,-4.11,-4.40,-0.06,-0.05,-0.06
123.55,4.02,4.13,4.02,4.13,-4.12,-4.41,-0.10,-0.10,-0.11
124.79,3.98,4.14,3.98,4.14,-4.13,-4.41,-0.15,-0.16,-0.16
126.03,3.94,4.15,3.94,4.15,-4.15,-4.41,-0.21,-0.21,-0.21
127.29,3.90,4.15,3.90,4.16,-4.16,-4.41,-0.26,-0.26,-0.26
128.57,3.87,4.17,3.87,4.16,-4.17,-4.40,-0.30,-0.31,-0.30
129.85,3.83,4.17,3.83,4.17,-4.18,-4.38,-0.35,-0.35,-0.34
131.15,3.80,4.19,3.80,4.19,-4.19,-4.37,-0.39,-0.40,-0.39
132.46,3.76,4.20,3.76,4.20,-4.20,-4.34,-0.44,-0.44,-0.44
133.79,3.73,4.22,3.73,4.22,-4.21,-4.32,-0.48,-0.49,-0.49
135.12,3.69,4.22,3.69,4.23,-4.22,-4.29,-0.53,-0.53,-0.53
136.48,3.65,4.23,3.65,4.23,-4.23,-4.25,-0.58,-0.58,-0.58
137.84,3.62,4.24,3.61,4.23,-4.23,-4.22,-0.62,-0.62,-0.62
139.22,3.57,4.23,3.58,4.24,-4.24,-4.18,-0.67,-0.66,-0.66
140.61,3.54,4.24,3.54,4.24,-4.24,-4.14,-0.70,-0.70,-0.70
142.02,3.50,4.24,3.50,4.24,-4.24,-4.10,-0.74,-0.75,-0.74
143.44,3.46,4.25,3.46,4.24,-4.24,-4.05,-0.78,-0.78,-0.79
144.87,3.42,4.24,3.42,4.24,-4.24,-4.01,-0.82,-0.83,-0.82
146.32,3.38,4.24,3.38,4.24,-4.24,-3.96,-0.86,-0.86,-0.86
147.78,3.34,4.24,3.34,4.24,-4.24,-3.92,-0.90,-0.90,-0.90
149.26,3.31,4.24,3.31,4.24,-4.24,-3.87,-0.93,-0.93,-0.94
150.75,3.27,4.24,3.27,4.23,-4.23,-3.82,-0.97,-0.97,-0.97
152.26,3.22,4.22,3.22,4.23,-4.23,-3.78,-1.01,-1.01,-1.00
153.78,3.18,4.22,3.18,4.22,-4.22,-3.74,-1.04,-1.05,-1.04
155.32,3.13,4.21,3.13,4.21,-4.21,-3.69,-1.09,-1.08,-1.08
156.88,3.09,4.21,3.09,4.21,-4.20,-3.65,-1.12,-1.11,-1.12
158.44,3.05,4.20,3.05,4.20,-4.19,-3.61,-1.14,-1.14,-1.15
160.03,3.01,4.19,3.01,4.18,-4.18,-3.57,-1.17,-1.17,-1.18
161.63,2.96,4.17,2.96,4.17,-4.17,-3.54,-1.21,-1.21,-1.21
163.24,2.91,4.14,2.91,4.14,-4.15,-3.50,-1.24,-1.24,-1.23
164.88,2.87,4.13,2.87,4.12,-4.13,-3.47,-1.26,-1.27,-1.26
166.53,2.82,4.10,2.82,4.11,-4.11,-3.44,-1.30,-1.29,-1.28
168.19,2.78,4.10,2.78,4.10,-4.09,-3.42,-1.32,-1.31,-1.32
169.87,2.74,4.08,2.74,4.08,-4.07,-3.39,-1.34,-1.34,-1.34
171.57,2.69,4.06,2.69,4.06,-4.05,-3.37,-1.36,-1.36,-1.37
173.29,2.64,4.03,2.64,4.03,-4.03,-3.35,-1.39,-1.39,-1.39
175.02,2.59,4.00,2.59,4.01,-4.01,-3.33,-1.42,-1.42,-1.41
176.77,2.55,3.98,2.55,3.98,-3.98,-3.32,-1.43,-1.44,-1.44
178.54,2.50,3.96,2.50,3.96,-3.95,-3.31,-1.45,-1.46,-1.46
180.32,2.45,3.93,2.45,3.93,-3.93,-3.30,-1.48,-1.48,-1.48
182.13,2.40,3.90,2.40,3.90,-3.90,-3.29,-1.50,-1.50,-1.50
183.95,2.35,3.87,2.35,3.86,-3.87,-3.29,-1.52,-1.52,-1.52
185.79,2.30,3.84,2.30,3.83,-3.84,-3.28,-1.54,-1.54,-1.54
187.65,2.24,3.79,2.25,3.80,-3.81,-3.28,-1.57,-1.56,-1.55
189.52,2.20,3.78,2.20,3.78,-3.78,-3.29,-1.58,-1.58,-1.58
191.42,2.15,3.75,2.15,3.75,-3.74,-3.29,-1.59,-1.60,-1.60
193.33,2.10,3.72,2.10,3.72,-3.71,-3.30,-1.61,-1.61,-1.62
195.27,2.04,3.67,2.04,3.68,-3.68,-3.31,-1.64,-1.63,-1.63
197.22,1.99,3.64,1.99,3.64,-3.64,-3.32,-1.65,-1.65,-1.65
199.19,1.94,3.60,1.94,3.60,-3.60,-3.33,-1.67,-1.67,-1.67
201.18,1.89,3.57,1.89,3.57,-3.57,-3.34,-1.68,-1.68,-1.68
203.19,1.83,3.52,1.83,3.53,-3.53,-3.36,-1.70,-1.69,-1.70
205.23,1.78,3.49,1.78,3.49,-3.49,-3.37,-1.71,-1.71,-1.71
207.28,1.73,3.45,1.72,3.45,-3.45,-3.39,-1.72,-1.73,-1.72
209.35,1.67,3.41,1.67,3.41,-3.41,-3.41,-1.74,-1.74,-1.74
211.44,1.62,3.37,1.62,3.37,-3.37,-3.42,-1.75,-1.75,-1.75
213.56,1.57,3.33,1.57,3.33,-3.33,-3.44,-1.76,-1.76,-1.76
215.69,1.52,3.29,1.52,3.29,-3.29,-3.46,-1.77,-1.77,-1.78
217.85,1.47,3.25,1.47,3.25,-3.25,-3.47,-1.78,-1.78,-1.78
220.03,1.42,3.21,1.42,3.20,-3.21,-3.48,-1.79,-1.79,-1.79
222.23,1.36,3.16,1.36,3.16,-3.16,-3.49,-1.81,-1.80,-1.80
224.45,1.31,3.12,1.31,3.12,-3.12,-3.50,-1.81,-1.81,-1.81
226.70,1.26,3.08,1.26,3.08,-3.08,-3.51,-1.82,-1.83,-1.82
228.96,1.21,3.04,1.21,3.04,-3.04,-3.52,-1.83,-1.83,-1.83
231.25,1.16,3.00,1.16,3.00,-3.00,-3.52,-1.84,-1.84,-1.84
233.57,1.11,2.97,1.11,2.96,-2.96,-3.51,-1.85,-1.85,-1.86
235.90,1.06,2.92,1.06,2.92,-2.92,-3.50,-1.86,-1.86,-1.86
238.26,1.01,2.88,1.01,2.88,-2.88,-3.49,-1.87,-1.87,-1.87
240.64,0.96,2.84,0.96,2.84,-2.84,-3.48,-1.88,-1.88,-1.88
243.05,0.91,2.80,0.91,2.79,-2.79,-3.46,-1.88,-1.88,-1.89
245.48,0.86,2.75,0.86,2.75,-2.75,-3.43,-1.89,-1.89,-1.89
247.93,0.80,2.69,0.80,2.70,-2.70,-3.40,-1.90,-1.89,-1.89
250.41,0.75,2.65,0.75,2.65,-2.65,-3.36,-1.90,-1.90,-1.90
252.92,0.69,2.60,0.69,2.60,-2.60,-3.32,-1.91,-1.91,-1.91
255.45,0.63,2.54,0.63,2.54,-2.54,-3.27,-1.92,-1.91,-1.91
258.00,0.58,2.49,0.58,2.49,-2.49,-3.22,-1.91,-1.92,-1.91
260.58,0.52,2.44,0.52,2.44,-2.44,-3.16,-1.92,-1.92,-1.92
263.19,0.46,2.38,0.46,2.38,-2.38,-3.10,-1.92,-1.92,-1.92
265.82,0.40,2.32,0.40,2.32,-2.32,-3.03,-1.93,-1.92,-1.93
268.48,0.35,2.27,0.34,2.27,-2.27,-2.96,-1.92,-1.92,-1.92
271.16,0.28,2.21,0.28,2.21,-2.21,-2.88,-1.93,-1.93,-1.93
273.87,0.23,2.15,0.22,2.15,-2.15,-2.80,-1.92,-1.93,-1.92
276.61,0.16,2.09,0.16,2.09,-2.09,-2.71,-1.93,-1.93,-1.93
279.38,0.11,2.03,0.11,2.03,-2.04,-2.62,-1.93,-1.93,-1.93
282.17,0.05,1.98,0.05,1.98,-1.98,-2.53,-1.93,-1.93,-1.93
284.99,-0.01,1.92,-0.01,1.92,-1.92,-2.43,-1.93,-1.93,-1.93
287.84,-0.07,1.86,-0.07,1.86,-1.86,-2.34,-1.93,-1.93,-1.93
290.72,-0.13,1.80,-0.13,1.80,-1.80,-2.23,-1.93,-1.93,-1.93
293.63,-0.19,1.74,-0.19,1.74,-1.74,-2.13,-1.93,-1.93,-1.93
296.57,-0.25,1.68,-0.25,1.68,-1.68,-2.03,-1.93,-1.93,-1.93
299.53,-0.31,1.62,-0.31,1.62,-1.62,-1.92,-1.93,-1.93,-1.93
302.53,-0.36,1.57,-0.37,1.56,-1.56,-1.81,-1.92,-1.92,-1.93
305.55,-0.43,1.49,-0.42,1.50,-1.50,-1.70,-1.93,-1.92,-1.92
308.61,-0.48,1.44,-0.48,1.44,-1.44,-1.59,-1.92,-1.92,-1.92
311.69,-0.54,1.38,-0.54,1.37,-1.38,-1.48,-1.92,-1.92,-1.92
314.81,-0.60,1.31,-0.60,1.32,-1.32,-1.37,-1.92,-1.92,-1.91
317.96,-0.66,1.26,-0.66,1.26,-1.26,-1.26,-1.92,-1.92,-1.92
321.14,-0.72,1.20,-0.72,1.20,-1.20,-1.14,-1.92,-1.92,-1.92
324.35,-0.77,1.16,-0.77,1.15,-1.14,-1.03,-1.91,-1.92,-1.93
327.59,-0.83,1.09,-0.83,1.09,-1.08,-0.92,-1.91,-1.91,-1.92
330.87,-0.89,1.02,-0.89,1.02,-1.02,-0.80,-1.91,-1.91,-1.91
334.18,-0.95,0.96,-0.95,0.96,-0.96,-0.69,-1.91,-1.91,-1.91
337.52,-1.01,0.89,-1.01,0.89,-0.90,-0.58,-1.91,-1.91,-1.90
340.90,-1.06,0.83,-1.07,0.83,-0.84,-0.46,-1.90,-1.90,-1.90
344.30,-1.12,0.78,-1.12,0.78,-0.78,-0.35,-1.90,-1.90,-1.90
347.75,-1.18,0.71,-1.18,0.72,-0.72,-0.23,-1.90,-1.89,-1.89
351.23,-1.23,0.66,-1.24,0.66,-0.66,-0.12,-1.89,-1.89,-1.90
354.74,-1.29,0.60,-1.29,0.60,-0.59,-0.01,-1.89,-1.89,-1.89
358.28,-1.35,0.53,-1.35,0.54,-0.53,0.11,-1.88,-1.88,-1.88
361.87,-1.40,0.47,-1.40,0.47,-0.47,0.22,-1.87,-1.87,-1.88
365.49,-1.46,0.41,-1.46,0.40,-0.41,0.34,-1.87,-1.87,-1.87
369.14,-1.52,0.33,-1.52,0.34,-0.34,0.45,-1.86,-1.86,-1.85
372.83,-1.58,0.27,-1.58,0.27,-0.28,0.57,-1.86,-1.86,-1.85
376.56,-1.64,0.22,-1.64,0.21,-0.21,0.68,-1.85,-1.85,-1.86
380.33,-1.70,0.15,-1.70,0.15,-0.14,0.79,-1.84,-1.84,-1.85
384.13,-1.76,0.07,-1.76,0.08,-0.07,0.91,-1.83,-1.84,-1.83
387.97,-1.82,0.00,-1.82,0.01,-0.01,1.02,-1.83,-1.83,-1.83
391.85,-1.88,-0.06,-1.88,-0.06,0.06,1.13,-1.82,-1.82,-1.82
395.77,-1.93,-0.13,-1.93,-0.13,0.13,1.25,-1.80,-1.81,-1.80
399.73,-1.99,-0.20,-1.99,-0.20,0.19,1.36,-1.80,-1.80,-1.79
403.72,-2.04,-0.26,-2.04,-0.26,0.26,1.47,-1.78,-1.78,-1.78
407.76,-2.09,-0.32,-2.09,-0.32,0.32,1.58,-1.77,-1.77,-1.77
411.84,-2.14,-0.38,-2.14,-0.38,0.39,1.69,-1.75,-1.75,-1.76
415.96,-2.19,-0.45,-2.19,-0.45,0.45,1.80,-1.74,-1.74,-1.74
420.12,-2.25,-0.51,-2.25,-0.52,0.52,1.90,-1.73,-1.73,-1.74
424.32,-2.31,-0.59,-2.31,-0.59,0.58,2.00,-1.73,-1.72,-1.72
428.56,-2.36,-0.65,-2.36,-0.65,0.65,2.11,-1.71,-1.71,-1.71
432.85,-2.41,-0.72,-2.41,-0.72,0.71,2.20,-1.70,-1.70,-1.69
437.18,-2.46,-0.78,-2.46,-0.78,0.78,2.30,-1.68,-1.69,-1.69
441.55,-2.52,-0.84,-2.52,-0.84,0.84,2.39,-1.68,-1.67,-1.68
445.96,-2.57,-0.91,-2.57,-0.91,0.91,2.48,-1.66,-1.66,-1.66
450.42,-2.62,-0.97,-2.63,-0.98,0.98,2.56,-1.64,-1.65,-1.65
454.93,-2.68,-1.05,-2.68,-1.04,1.04,2.64,-1.64,-1.63,-1.63
459.48,-2.73,-1.11,-2.73,-1.11,1.11,2.71,-1.62,-1.62,-1.62
464.07,-2.78,-1.18,-2.78,-1.18,1.18,2.78,-1.60,-1.60,-1.60
468.71,-2.84,-1.25,-2.84,-1.25,1.25,2.84,-1.59,-1.59,-1.59
473.40,-2.89,-1.32,-2.89,-1.32,1.32,2.90,-1.57,-1.57,-1.57
478.13,-2.95,-1.40,-2.95,-1.39,1.39,2.95,-1.56,-1.55,-1.56
482.91,-3.00,-1.46,-3.00,-1.46,1.47,2.99,-1.54,-1.53,-1.54
487.74,-3.05,-1.53,-3.05,-1.53,1.54,3.02,-1.51,-1.52,-1.52
492.62,-3.10,-1.60,-3.11,-1.61,1.61,3.05,-1.49,-1.50,-1.50
497.55,-3.16,-1.69,-3.16,-1.68,1.68,3.07,-1.49,-1.48,-1.47
502.52,-3.21,-1.76,-3.21,-1.75,1.74,3.08,-1.47,-1.46,-1.46
507.55,-3.25,-1.81,-3.26,-1.82,1.81,3.09,-1.44,-1.45,-1.44
512.62,-3.30,-1.87,-3.30,-1.87,1.87,3.09,-1.43,-1.43,-1.43
517.75,-3.35,-1.93,-3.35,-1.93,1.93,3.08,-1.42,-1.41,-1.42
522.93,-3.39,-1.99,-3.39,-1.99,2.00,3.06,-1.39,-1.40,-1.40
528.16,-3.44,-2.06,-3.44,-2.05,2.06,3.03,-1.38,-1.38,-1.39
533.44,-3.48,-2.12,-3.48,-2.12,2.12,3.01,-1.36,-1.36,-1.36
538.77,-3.52,-2.18,-3.52,-2.19,2.19,2.97,-1.34,-1.34,-1.34
544.16,-3.57,-2.25,-3.57,-2.25,2.25,2.93,-1.32,-1.32,-1.32
549.60,-3.61,-2.32,-3.61,-2.32,2.32,2.88,-1.29,-1.30,-1.29
555.10,-3.66,-2.39,-3.66,-2.38,2.38,2.83,-1.28,-1.28,-1.27
560.65,-3.70,-2.44,-3.70,-2.45,2.45,2.77,-1.26,-1.26,-1.26
566.25,-3.75,-2.51,-3.75,-2.51,2.51,2.71,-1.24,-1.24,-1.24
571.92,-3.79,-2.57,-3.79,-2.57,2.57,2.64,-1.22,-1.22,-1.22
577.64,-3.83,-2.63,-3.83,-2.63,2.63,2.58,-1.20,-1.20,-1.20
583.41,-3.87,-2.70,-3.87,-2.69,2.70,2.50,-1.18,-1.17,-1.17
589.25,-3.91,-2.76,-3.91,-2.76,2.76,2.43,-1.16,-1.16,-1.16
595.14,-3.95,-2.81,-3.95,-2.82,2.82,2.36,-1.14,-1.14,-1.14
601.09,-4.00,-2.88,-4.00,-2.88,2.87,2.28,-1.13,-1.12,-1.12
607.10,-4.04,-2.93,-4.04,-2.93,2.93,2.20,-1.11,-1.11,-1.11
613.17,-4.08,-2.99,-4.08,-2.99,2.99,2.12,-1.09,-1.09,-1.09
619.30,-4.11,-3.05,-4.12,-3.05,3.05,2.04,-1.06,-1.07,-1.06
625.50,-4.15,-3.11,-4.15,-3.10,3.11,1.96,-1.04,-1.04,-1.05
631.75,-4.19,-3.16,-4.19,-3.16,3.16,1.88,-1.03,-1.02,-1.03
638.07,-4.22,-3.21,-4.22,-3.22,3.22,1.80,-1.00,-1.00,-1.01
644.45,-4.26,-3.28,-4.26,-3.27,3.27,1.72,-0.99,-0.98,-0.98
650.89,-4.29,-3.32,-4.29,-3.32,3.33,1.64,-0.96,-0.97,-0.97
657.40,-4.33,-3.38,-4.33,-3.38,3.38,1.56,-0.95,-0.95,-0.95
663.98,-4.36,-3.43,-4.36,-3.43,3.42,1.48,-0.94,-0.94,-0.94
670.62,-4.40,-3.48,-4.39,-3.47,3.46,1.40,-0.94,-0.93,-0.92
677.32,-4.41,-3.50,-4.41,-3.51,3.50,1.32,-0.91,-0.91,-0.91
684.10,-4.42,-3.53,-4.42,-3.53,3.54,1.25,-0.89,-0.89,-0.89
690.94,-4.43,-3.56,-4.43,-3.56,3.56,1.17,-0.87,-0.87,-0.87
697.85,-4.44,-3.59,-4.44,-3.59,3.59,1.09,-0.85,-0.85,-0.85
