frequency,raw
20,-29.19
20.2,-28.91
20.4,-28.58
20.61,-28.29
20.81,-27.95
21.02,-27.66
21.23,-27.25
21.44,-26.8
21.66,-26.42
21.87,-25.97
22.09,-25.54
22.31,-25.11
22.54,-24.72
22.76,-24.27
22.99,-23.88
23.22,-23.47
23.45,-23.04
23.69,-22.69
23.92,-22.31
24.16,-21.96
24.4,-21.6
24.65,-21.27
24.89,-20.89
25.14,-20.53
25.39,-20.17
25.65,-19.83
25.91,-19.48
26.16,-19.07
26.43,-18.71
26.69,-18.26
26.96,-17.83
27.23,-17.4
27.5,-16.96
27.77,-16.49
28.05,-16.06
28.33,-15.62
28.62,-15.25
28.9,-14.81
29.19,-14.42
29.48,-14.02
29.78,-13.72
30.08,-13.4
30.38,-13.08
30.68,-12.76
30.99,-12.46
31.3,-12.16
31.61,-11.86
31.93,-11.56
32.24,-11.23
32.57,-10.94
32.89,-10.61
33.22,-10.3
33.55,-9.98
33.89,-9.67
34.23,-9.34
34.57,-9
34.92,-8.67
35.27,-8.27
35.62,-7.84
35.97,-7.37
36.33,-6.94
36.7,-6.52
37.06,-6.04
37.43,-5.6
37.81,-5.22
38.19,-4.95
38.57,-4.69
38.95,-4.4
39.34,-4.13
39.74,-3.88
40.14,-3.65
40.54,-3.42
40.94,-3.19
41.35,-2.96
41.76,-2.7
42.18,-2.47
42.6,-2.24
43.03,-2.03
43.46,-1.8
43.9,-1.57
44.33,-1.32
44.78,-1.11
45.23,-0.94
45.68,-0.76
46.13,-0.58
46.6,-0.43
47.06,-0.26
47.53,-0.1
48.01,0.07
48.49,0.25
48.97,0.41
49.46,0.56
49.96,0.69
50.46,0.8
50.96,0.93
51.47,1.04
51.99,1.17
52.51,1.29
53.03,1.41
53.56,1.53
54.1,1.64
54.64,1.71
55.18,1.77
55.74,1.83
56.29,1.9
56.86,1.97
57.42,2.04
58,2.1
58.58,2.16
59.16,2.23
59.76,2.3
60.35,2.33
60.96,2.36
61.57,2.39
62.18,2.42
62.8,2.44
63.43,2.47
64.07,2.5
64.71,2.53
65.35,2.55
66.01,2.58
66.67,2.61
67.33,2.62
68.01,2.65
68.69,2.67
69.37,2.7
70.07,2.73
70.77,2.75
71.48,2.78
72.19,2.8
72.91,2.83
73.64,2.85
74.38,2.85
75.12,2.84
75.87,2.85
76.63,2.86
77.4,2.87
78.17,2.87
78.95,2.87
79.74,2.88
80.54,2.89
81.35,2.9
82.16,2.86
82.98,2.83
83.81,2.8
84.65,2.77
85.5,2.73
86.35,2.69
87.22,2.66
88.09,2.63
88.97,2.59
89.86,2.56
90.76,2.5
91.66,2.44
92.58,2.39
93.51,2.32
94.44,2.27
95.39,2.21
96.34,2.15
97.3,2.1
98.28,2.03
99.26,1.98
100.25,1.9
101.25,1.82
102.27,1.73
103.29,1.65
104.32,1.58
105.37,1.5
106.42,1.42
107.48,1.34
108.56,1.27
109.64,1.19
110.74,1.11
111.85,0.98
112.97,0.86
114.1,0.75
115.24,0.62
116.39,0.5
117.55,0.38
118.73,0.25
119.92,0.13
121.12,0.01
122.33,-0.09
123.55,-0.18
124.79,-0.27
126.03,-0.37
127.29,-0.46
128.57,-0.55
129.85,-0.65
131.15,-0.74
132.46,-0.83
133.79,-0.85
135.12,-0.78
136.48,-0.72
137.84,-0.65
139.22,-0.58
140.61,-0.51
142.02,-0.43
143.44,-0.35
144.87,-0.29
146.32,-0.21
147.78,-0.14
149.26,-0.11
150.75,-0.09
152.26,-0.06
153.78,-0.03
155.32,0
156.88,0.03
158.44,0.07
160.03,0.1
161.63,0.13
163.24,0.16
164.88,0.16
166.53,0.15
168.19,0.14
169.87,0.15
171.57,0.14
173.29,0.14
175.02,0.13
176.77,0.13
178.54,0.12
180.32,0.12
182.13,0.11
183.95,0.1
185.79,0.08
187.65,0.06
189.52,0.04
191.42,0.02
193.33,0.01
195.27,0
197.22,-0.02
199.19,-0.04
201.18,-0.04
203.19,-0.07
205.23,-0.1
207.28,-0.13
209.35,-0.15
211.44,-0.18
213.56,-0.2
215.69,-0.23
217.85,-0.26
220.03,-0.29
222.23,-0.31
224.45,-0.34
226.7,-0.34
228.96,-0.36
231.25,-0.36
233.57,-0.38
235.9,-0.39
238.26,-0.4
240.64,-0.41
243.05,-0.42
245.48,-0.43
247.93,-0.43
250.41,-0.45
252.92,-0.45
255.45,-0.47
258,-0.47
260.58,-0.49
263.19,-0.49
265.82,-0.51
268.48,-0.51
271.16,-0.53
273.87,-0.53
276.61,-0.54
279.38,-0.53
282.17,-0.54
284.99,-0.53
287.84,-0.53
290.72,-0.51
293.63,-0.51
296.57,-0.49
299.53,-0.48
302.53,-0.47
305.55,-0.45
308.61,-0.44
311.69,-0.42
314.81,-0.4
317.96,-0.39
321.14,-0.37
324.35,-0.35
327.59,-0.32
330.87,-0.29
334.18,-0.26
337.52,-0.24
340.9,-0.22
344.3,-0.2
347.75,-0.18
351.23,-0.16
354.74,-0.14
358.28,-0.12
361.87,-0.09
365.49,-0.12
369.14,0
372.83,0.13
376.56,0.33
380.33,0.52
384.13,0.64
387.97,0.64
391.85,0.68
395.77,0.66
399.73,0.66
403.72,0.66
407.76,0.65
411.84,0.64
415.96,0.62
420.12,0.61
424.32,0.6
428.56,0.58
432.85,0.57
437.18,0.55
441.55,0.54
445.96,0.52
450.42,0.52
454.93,0.5
459.48,0.47
464.07,0.45
468.71,0.43
473.4,0.41
478.13,0.39
482.91,0.37
487.74,0.34
492.62,0.32
497.55,0.3
502.52,0.27
507.55,0.24
512.62,0.21
517.75,0.17
522.93,0.14
528.16,0.11
533.44,0.08
538.77,0.04
544.16,0.01
549.6,-0.02
555.1,-0.05
560.65,-0.07
566.25,-0.1
571.92,-0.12
577.64,-0.15
583.41,-0.18
589.25,-0.2
595.14,-0.23
601.09,-0.25
607.1,-0.28
613.17,-0.31
619.3,-0.34
625.5,-0.38
631.75,-0.41
638.07,-0.44
644.45,-0.47
650.89,-0.5
657.4,-0.54
663.98,-0.57
670.62,-0.6
677.32,-0.63
684.1,-0.66
690.94,-0.65
697.85,-0.63
704.83,-0.62
711.87,-0.6
718.99,-0.58
726.18,-0.6
733.44,-0.6
740.78,-0.53
748.19,-0.32
755.67,-0.14
763.23,-0.03
770.86,-0.05
778.57,-0.13
786.35,-0.2
794.22,-0.17
802.16,-0.17
810.18,-0.2
818.28,-0.21
826.46,-0.22
834.73,-0.25
843.08,-0.26
851.51,-0.28
860.02,-0.29
868.62,-0.32
877.31,-0.33
886.08,-0.34
894.94,-0.33
903.89,-0.31
912.93,-0.28
922.06,-0.26
931.28,-0.23
940.59,-0.2
950,-0.18
959.5,-0.16
969.09,-0.14
978.78,-0.1
988.57,-0.06
998.46,-0.01
1008.44,0.05
1018.53,0.11
1028.71,0.16
1039,0.22
1049.39,0.27
1059.88,0.33
1070.48,0.39
1081.19,0.44
1092,0.47
1102.92,0.49
1113.95,0.5
1125.09,0.5
1136.34,0.5
1147.7,0.5
1159.18,0.5
1170.77,0.5
1182.48,0.44
1194.3,0.49
1206.25,0.79
1218.31,1.21
1230.49,1.63
1242.8,1.91
1255.22,1.92
1267.78,1.84
1280.45,1.83
1293.26,1.82
1306.19,1.8
1319.25,1.78
1332.45,1.79
1345.77,1.83
1359.23,1.92
1372.82,2.03
1386.55,2.15
1400.41,2.27
1414.42,2.38
1428.56,2.46
1442.85,2.49
1457.28,2.49
1471.85,2.48
1486.57,2.59
1501.43,2.89
1516.45,3.25
1531.61,3.51
1546.93,3.63
1562.4,3.53
1578.02,3.36
1593.8,3.25
1609.74,3.14
1625.84,3.04
1642.1,2.95
1658.52,2.85
1675.1,2.75
1691.85,2.65
1708.77,2.55
1725.86,2.45
1743.12,2.36
1760.55,2.27
1778.15,2.19
1795.94,2.12
1813.9,2.06
1832.03,2
1850.36,1.94
1868.86,1.88
1887.55,1.81
1906.42,1.75
1925.49,1.69
1944.74,1.66
1964.19,1.65
1983.83,1.66
2003.67,1.69
2023.71,1.72
2043.94,1.75
2064.38,1.78
2085.03,1.81
2105.88,1.84
2126.94,1.87
2148.2,1.9
2169.69,1.93
2191.38,1.96
2213.3,1.99
2235.43,2.02
2257.78,2.09
2280.36,2.17
2303.17,2.24
2326.2,2.3
2349.46,2.38
2372.95,2.46
2396.68,2.53
2420.65,2.59
2444.86,2.69
2469.31,2.8
2494,2.96
2518.94,3.11
2544.13,3.28
2569.57,3.44
2595.27,3.6
2621.22,3.76
2647.43,3.92
2673.9,4.08
2700.64,4.25
2727.65,4.4
2754.93,4.54
2782.48,4.67
2810.3,4.79
2838.4,4.92
2866.79,5.04
2895.46,5.12
2924.41,5.25
2953.65,5.74
2983.19,6.47
3013.02,7.12
3043.15,7.53
3073.58,7.58
3104.32,7.37
3135.36,7.29
3166.72,7.29
3198.38,7.26
3230.37,7.2
3262.67,7.11
3295.3,6.98
3328.25,6.83
3361.53,6.69
3395.15,6.55
3429.1,6.41
3463.39,6.28
3498.03,6.14
3533.01,6
3568.34,5.85
3604.02,5.71
3640.06,5.59
3676.46,5.47
3713.22,5.36
3750.36,5.24
3787.86,5.12
3825.74,5.08
3864,5.08
3902.64,5.07
3941.66,5.07
3981.08,5.06
4020.89,5.03
4061.1,4.98
4101.71,4.94
4142.73,4.9
4184.15,4.84
4226,4.7
4268.26,4.5
4310.94,4.31
4354.05,4.12
4397.59,3.96
4441.56,3.81
4485.98,3.66
4530.84,3.35
4576.15,2.95
4621.91,2.56
4668.13,2.14
4714.81,1.69
4761.96,1.23
4809.58,0.79
4857.67,0.39
4906.25,0
4955.31,-0.39
5004.87,-0.68
5054.91,-0.86
5105.46,-1.04
5156.52,-1.2
5208.08,-1.38
5260.16,-1.53
5312.77,-1.59
5365.89,-1.65
5419.55,-1.72
5473.75,-1.79
5528.49,-1.86
5583.77,-1.91
5639.61,-1.98
5696,-2.05
5752.96,-1.91
5810.49,-1.74
5868.6,-1.85
5927.28,-1.24
5986.56,-0.36
6046.42,0.6
6106.89,1.41
6167.96,1.73
6229.64,1.99
6291.93,2.26
6354.85,2.52
6418.4,2.53
6482.58,2.04
6547.41,1.56
6612.88,1.07
6679.01,0.59
6745.8,0.1
6813.26,-0.38
6881.39,-0.92
6950.21,-1.81
7019.71,-2.71
7089.91,-3.38
7160.81,-4.06
7232.41,-4.83
7304.74,-5.6
7377.79,-6.23
7451.56,-6.8
7526.08,-7.45
7601.34,-8.35
7677.35,-9.23
7754.13,-9.92
7831.67,-10.6
7909.98,-11.27
7989.08,-11.93
8068.98,-11.58
8149.67,-10.85
8231.16,-10.35
8313.47,-10.2
8396.61,-10.04
8480.57,-9.89
8565.38,-9.74
8651.03,-9.59
8737.54,-9.44
8824.92,-9.29
8913.17,-9.13
9002.3,-9.27
9092.32,-9.41
9183.25,-9.54
9275.08,-9.68
9367.83,-9.82
9461.51,-9.96
9556.12,-10.12
9651.68,-10.3
9748.2,-10.48
9845.68,-10.66
9944.14,-10.84
10043.58,-10.81
10144.02,-10.73
10245.46,-10.66
10347.91,-10.58
10451.39,-10.5
10555.91,-10.42
10661.46,-10.34
10768.08,-10.27
10875.76,-10.16
10984.52,-10.03
11094.36,-10
11205.31,-9.99
11317.36,-9.99
11430.53,-9.99
11544.84,-9.98
11660.29,-9.97
11776.89,-9.97
11894.66,-9.97
12013.6,-9.96
12133.74,-9.96
12255.08,-9.88
12377.63,-9.49
12501.41,-9.09
12626.42,-8.69
12752.68,-8.29
12880.21,-7.89
13009.01,-7.22
13139.1,-6.35
13270.49,-5.51
13403.2,-4.74
13537.23,-3.98
13672.6,-3.2
13809.33,-2.44
13947.42,-2.87
14086.9,-3.31
14227.77,-3.86
14370.04,-4.32
14513.74,-4.78
14658.88,-5.24
14805.47,-5.47
14953.52,-5.83
15103.06,-6.18
15254.09,-6.54
15406.63,-6.9
15560.7,-7.25
15716.3,-7.84
15873.47,-8.26
16032.2,-8.68
16192.52,-8.59
16354.45,-6.61
16517.99,-6.39
16683.17,-6.17
16850.01,-6.07
17018.51,-6.25
17188.69,-6.44
17360.58,-6.62
17534.18,-6.66
17709.53,-6.63
17886.62,-6.6
18065.49,-6.57
18246.14,-6.42
18428.6,-6.13
18612.89,-5.83
18799.02,-5.7
18987.01,-5.57
19176.88,-5.43
19368.65,-5.3
19562.33,-5.18
19757.96,-5.04
19955.54,-6.11
